time;Ecg1;Ecg2;Ecg3;Ecg5;Ecg6;Ecg7;Ecg8;Ecg9;Ecg10;Ecg11;Ecg12
1587052494753;24;-20;-44;-2;34;-32;0;0;0;0;0
1587052494755;5;1;-4;-3;5;-1;0;0;0;0;0
1587052494757;-21;34;55;-7;-38;45;0;0;0;0;0
1587052494759;-47;22;69;12;-58;46;0;0;0;0;0
1587052494761;-41;-9;32;25;-36;12;0;0;0;0;0
1587052494763;-23;-18;5;20;-14;-6;0;0;0;0;0
1587052494765;-8;-40;-32;24;12;-36;0;0;0;0;0
1587052494767;14;-34;-48;10;31;-41;0;0;0;0;0
1587052494769;9;-15;-24;3;17;-19;0;0;0;0;0
1587052494771;-11;-21;-10;16;0;-15;0;0;0;0;0
1587052494773;-7;-22;-15;14;4;-18;0;0;0;0;0
1587052494775;0;-12;-12;6;6;-12;0;0;0;0;0
1587052494777;-7;-6;1;6;-4;-2;0;0;0;0;0
1587052494779;-9;-11;-2;10;-3;-6;0;0;0;0;0
1587052494781;0;16;16;-8;-8;16;0;0;0;0;0
1587052494783;0;70;70;-35;-35;70;0;0;0;0;0
1587052494785;2;48;46;-25;-22;47;0;0;0;0;0
1587052494787;-1;-19;-18;10;9;-18;0;0;0;0;0
1587052494789;-15;-23;-8;19;-3;-15;0;0;0;0;0
1587052494791;-22;-11;11;16;-16;0;0;0;0;0;0
1587052494793;-24;-28;-4;26;-10;-16;0;0;0;0;0
1587052494795;-18;-35;-17;26;0;-26;0;0;0;0;0
1587052494797;-15;-34;-19;24;2;-26;0;0;0;0;0
1587052494799;-24;-34;-10;29;-7;-22;0;0;0;0;0
1587052494801;-12;-25;-13;18;1;-19;0;0;0;0;0
1587052494803;27;-11;-38;-8;33;-24;0;0;0;0;0
1587052494805;45;-6;-51;-20;48;-28;0;0;0;0;0
1587052494807;28;-12;-40;-8;34;-26;0;0;0;0;0
1587052494809;3;-27;-30;12;17;-28;0;0;0;0;0
1587052494811;-20;-30;-10;25;-5;-20;0;0;0;0;0
1587052494813;-25;-14;11;19;-18;-1;0;0;0;0;0
1587052494815;-16;-8;8;12;-12;0;0;0;0;0;0
1587052494817;-8;-2;6;5;-7;2;0;0;0;0;0
1587052494819;5;21;16;-13;-5;19;0;0;0;0;0
1587052494821;2;28;26;-15;-12;27;0;0;0;0;0
1587052494823;-19;13;32;3;-25;23;0;0;0;0;0
1587052494825;-27;-2;25;14;-26;12;0;0;0;0;0
1587052494827;-18;-9;9;13;-13;0;0;0;0;0;0
1587052494829;-15;-3;12;9;-13;5;0;0;0;0;0
1587052494831;-18;-3;15;10;-16;6;0;0;0;0;0
1587052494833;-22;-23;-1;22;-10;-12;0;0;0;0;0
1587052494835;-21;-18;3;19;-12;-7;0;0;0;0;0
1587052494837;-10;15;25;-3;-17;20;0;0;0;0;0
1587052494839;12;28;16;-20;-2;22;0;0;0;0;0
1587052494841;29;19;-10;-24;20;5;0;0;0;0;0
1587052494843;13;4;-9;-9;11;-2;0;0;0;0;0
1587052494845;-18;-14;4;16;-11;-5;0;0;0;0;0
1587052494847;-28;-13;15;20;-21;1;0;0;0;0;0
1587052494849;-21;6;27;7;-24;17;0;0;0;0;0
1587052494851;-15;7;22;4;-18;15;0;0;0;0;0
1587052494853;-2;0;2;1;-2;1;0;0;0;0;0
1587052494855;23;9;-14;-16;19;-2;0;0;0;0;0
1587052494857;40;16;-24;-28;32;-4;0;0;0;0;0
1587052494859;26;15;-11;-21;19;2;0;0;0;0;0
1587052494861;3;36;33;-20;-15;35;0;0;0;0;0
1587052494863;-6;73;79;-34;-42;76;0;0;0;0;0
1587052494865;-11;73;84;-31;-47;79;0;0;0;0;0
1587052494867;-14;36;50;-11;-32;43;0;0;0;0;0
1587052494869;-5;23;28;-9;-16;26;0;0;0;0;0
1587052494871;7;34;27;-21;-10;31;0;0;0;0;0
1587052494873;8;34;26;-21;-9;30;0;0;0;0;0
1587052494875;18;65;47;-42;-14;56;0;0;0;0;0
1587052494877;19;83;64;-51;-22;74;0;0;0;0;0
1587052494879;4;64;60;-34;-28;62;0;0;0;0;0
1587052494881;7;62;55;-35;-24;59;0;0;0;0;0
1587052494883;24;72;48;-48;-12;60;0;0;0;0;0
1587052494885;28;57;29;-43;0;43;0;0;0;0;0
1587052494887;13;37;24;-25;-5;31;0;0;0;0;0
1587052494889;-1;40;41;-20;-21;41;0;0;0;0;0
1587052494891;0;44;44;-22;-22;44;0;0;0;0;0
1587052494893;18;41;23;-30;-2;32;0;0;0;0;0
1587052494895;31;18;-13;-25;22;3;0;0;0;0;0
1587052494897;25;0;-25;-13;25;-12;0;0;0;0;0
1587052494899;35;-1;-36;-17;36;-18;0;0;0;0;0
1587052494901;52;15;-37;-34;45;-11;0;0;0;0;0
1587052494903;31;34;3;-33;14;19;0;0;0;0;0
1587052494905;-8;36;44;-14;-26;40;0;0;0;0;0
1587052494907;-16;41;57;-13;-36;49;0;0;0;0;0
1587052494909;-9;44;53;-18;-31;49;0;0;0;0;0
1587052494911;-14;37;51;-12;-32;44;0;0;0;0;0
1587052494913;-13;39;52;-13;-32;46;0;0;0;0;0
1587052494915;-5;41;46;-18;-25;44;0;0;0;0;0
1587052494917;-7;31;38;-12;-22;35;0;0;0;0;0
1587052494919;-4;7;11;-2;-7;9;0;0;0;0;0
1587052494921;5;-24;-29;9;17;-26;0;0;0;0;0
1587052494923;1;-50;-51;24;26;-50;0;0;0;0;0
1587052494925;-3;-63;-60;33;29;-61;0;0;0;0;0
1587052494927;-15;-32;-17;23;1;-24;0;0;0;0;0
1587052494929;-41;14;55;13;-48;35;0;0;0;0;0
1587052494931;-46;30;76;8;-61;53;0;0;0;0;0
1587052494933;-37;20;57;8;-47;39;0;0;0;0;0
1587052494935;-37;5;42;16;-39;24;0;0;0;0;0
1587052494937;-45;1;46;22;-45;24;0;0;0;0;0
1587052494939;-37;7;44;15;-40;26;0;0;0;0;0
1587052494941;-17;6;23;5;-20;15;0;0;0;0;0
1587052494943;-2;-19;-17;10;8;-18;0;0;0;0;0
1587052494945;14;-28;-42;7;28;-35;0;0;0;0;0
1587052494947;16;-18;-34;1;25;-26;0;0;0;0;0
1587052494949;-2;-15;-13;8;6;-14;0;0;0;0;0
1587052494951;-10;-11;-1;10;-4;-6;0;0;0;0;0
1587052494953;-7;-17;-10;12;2;-13;0;0;0;0;0
1587052494955;-10;-22;-12;16;1;-17;0;0;0;0;0
1587052494957;-6;-6;0;6;-3;-3;0;0;0;0;0
1587052494959;-10;-17;-7;13;-1;-12;0;0;0;0;0
1587052494961;-21;-33;-12;27;-4;-22;0;0;0;0;0
1587052494963;-24;-32;-8;28;-8;-20;0;0;0;0;0
1587052494965;-28;-26;2;27;-15;-12;0;0;0;0;0
1587052494967;-19;-6;13;12;-16;4;0;0;0;0;0
1587052494969;-17;3;20;7;-18;12;0;0;0;0;0
1587052494971;-26;3;29;11;-27;16;0;0;0;0;0
1587052494973;-27;-5;22;16;-24;9;0;0;0;0;0
1587052494975;-27;-24;3;25;-15;-10;0;0;0;0;0
1587052494977;-29;-28;1;28;-15;-13;0;0;0;0;0
1587052494979;-31;-22;9;26;-20;-6;0;0;0;0;0
1587052494981;-28;-24;4;26;-16;-10;0;0;0;0;0
1587052494983;-13;-36;-23;24;5;-29;0;0;0;0;0
1587052494985;-1;-40;-39;20;19;-39;0;0;0;0;0
1587052494987;-4;-27;-23;15;10;-25;0;0;0;0;0
1587052494989;-23;-39;-16;31;-3;-27;0;0;0;0;0
1587052494991;-43;-70;-27;56;-8;-48;0;0;0;0;0
1587052494993;-52;-91;-39;71;-6;-65;0;0;0;0;0
1587052494995;-60;-98;-38;79;-11;-68;0;0;0;0;0
1587052494997;-70;-95;-25;82;-22;-60;0;0;0;0;0
1587052494999;-50;-84;-34;67;-8;-59;0;0;0;0;0
1587052495001;-6;-60;-54;33;24;-57;0;0;0;0;0
1587052495003;23;-43;-66;10;45;-54;0;0;0;0;0
1587052495005;56;-9;-65;-24;61;-37;0;0;0;0;0
1587052495007;97;40;-57;-69;77;-8;0;0;0;0;0
1587052495009;141;101;-40;-121;91;31;0;0;0;0;0
1587052495011;187;190;3;-189;92;97;0;0;0;0;0
1587052495013;207;266;59;-237;74;163;0;0;0;0;0
1587052495015;198;318;120;-258;39;219;0;0;0;0;0
1587052495017;180;394;214;-287;-17;304;0;0;0;0;0
1587052495019;160;467;307;-314;-73;387;0;0;0;0;0
1587052495021;148;532;384;-340;-118;458;0;0;0;0;0
1587052495023;126;605;479;-366;-176;542;0;0;0;0;0
1587052495025;81;643;562;-362;-240;603;0;0;0;0;0
1587052495027;42;667;625;-355;-291;646;0;0;0;0;0
1587052495029;-8;663;671;-328;-339;667;0;0;0;0;0
1587052495031;-49;592;641;-272;-345;617;0;0;0;0;0
1587052495033;-67;460;527;-197;-297;494;0;0;0;0;0
1587052495035;-84;314;398;-115;-241;356;0;0;0;0;0
1587052495037;-76;219;295;-72;-185;257;0;0;0;0;0
1587052495039;-69;162;231;-47;-150;197;0;0;0;0;0
1587052495041;-75;95;170;-10;-122;133;0;0;0;0;0
1587052495043;-79;36;115;21;-97;76;0;0;0;0;0
1587052495045;-74;23;97;25;-85;60;0;0;0;0;0
1587052495047;-70;16;86;27;-78;51;0;0;0;0;0
1587052495049;-79;2;81;38;-80;42;0;0;0;0;0
1587052495051;-77;-14;63;45;-70;25;0;0;0;0;0
1587052495053;-61;-31;30;46;-45;0;0;0;0;0;0
1587052495055;-49;-35;14;42;-31;-10;0;0;0;0;0
1587052495057;-38;-32;6;35;-22;-13;0;0;0;0;0
1587052495059;-25;-29;-4;27;-10;-16;0;0;0;0;0
1587052495061;-25;-26;-1;25;-12;-13;0;0;0;0;0
1587052495063;-24;4;28;10;-26;16;0;0;0;0;0
1587052495065;-17;18;35;-1;-26;27;0;0;0;0;0
1587052495067;-16;-9;7;12;-11;-1;0;0;0;0;0
1587052495069;-27;-22;5;24;-16;-8;0;0;0;0;0
1587052495071;-34;-24;10;29;-22;-7;0;0;0;0;0
1587052495073;-15;-7;8;11;-11;1;0;0;0;0;0
1587052495075;-5;19;24;-7;-14;22;0;0;0;0;0
1587052495077;-6;16;22;-5;-14;19;0;0;0;0;0
1587052495079;-7;-21;-14;14;4;-17;0;0;0;0;0
1587052495081;-6;-54;-48;30;21;-51;0;0;0;0;0
1587052495083;3;-49;-52;23;28;-50;0;0;0;0;0
1587052495085;8;-37;-45;14;27;-41;0;0;0;0;0
1587052495087;11;-28;-39;8;25;-33;0;0;0;0;0
1587052495089;12;-20;-32;4;22;-26;0;0;0;0;0
1587052495091;6;-28;-34;11;20;-31;0;0;0;0;0
1587052495093;-3;-54;-51;28;24;-52;0;0;0;0;0
1587052495095;-2;-56;-54;29;26;-55;0;0;0;0;0
1587052495097;9;-40;-49;15;29;-44;0;0;0;0;0
1587052495099;12;-33;-45;10;29;-39;0;0;0;0;0
1587052495101;8;-12;-20;2;14;-16;0;0;0;0;0
1587052495103;4;-2;-6;-1;5;-4;0;0;0;0;0
1587052495105;1;-16;-17;7;9;-16;0;0;0;0;0
1587052495107;2;-30;-32;14;17;-31;0;0;0;0;0
1587052495109;1;-45;-46;22;24;-45;0;0;0;0;0
1587052495111;-11;-38;-27;24;8;-32;0;0;0;0;0
1587052495113;-10;-13;-3;11;-3;-8;0;0;0;0;0
1587052495115;3;-6;-9;1;6;-7;0;0;0;0;0
1587052495117;6;-25;-31;9;19;-28;0;0;0;0;0
1587052495119;13;-27;-40;7;27;-33;0;0;0;0;0
1587052495121;18;-14;-32;-2;25;-23;0;0;0;0;0
1587052495123;16;-15;-31;-1;24;-23;0;0;0;0;0
1587052495125;17;-10;-27;-4;22;-18;0;0;0;0;0
1587052495127;17;-5;-22;-6;20;-13;0;0;0;0;0
1587052495129;12;1;-11;-7;12;-5;0;0;0;0;0
1587052495131;4;16;12;-10;-4;14;0;0;0;0;0
1587052495133;7;21;14;-14;-3;18;0;0;0;0;0
1587052495135;13;0;-13;-7;13;-6;0;0;0;0;0
1587052495137;13;-31;-44;9;29;-37;0;0;0;0;0
1587052495139;17;-32;-49;7;33;-40;0;0;0;0;0
1587052495141;21;-6;-27;-8;24;-16;0;0;0;0;0
1587052495143;23;13;-10;-18;17;2;0;0;0;0;0
1587052495145;25;15;-10;-20;18;3;0;0;0;0;0
1587052495147;28;7;-21;-18;25;-7;0;0;0;0;0
1587052495149;28;-6;-34;-11;31;-20;0;0;0;0;0
1587052495151;20;-25;-45;2;33;-35;0;0;0;0;0
1587052495153;20;-18;-38;-1;29;-28;0;0;0;0;0
1587052495155;26;3;-23;-15;25;-10;0;0;0;0;0
1587052495157;25;10;-15;-18;20;-2;0;0;0;0;0
1587052495159;27;7;-20;-17;24;-6;0;0;0;0;0
1587052495161;36;14;-22;-25;29;-4;0;0;0;0;0
1587052495163;36;13;-23;-25;30;-5;0;0;0;0;0
1587052495165;27;-4;-31;-12;29;-17;0;0;0;0;0
1587052495167;26;-12;-38;-7;32;-25;0;0;0;0;0
1587052495169;30;-7;-37;-12;34;-22;0;0;0;0;0
1587052495171;28;-3;-31;-13;30;-17;0;0;0;0;0
1587052495173;30;-4;-34;-13;32;-19;0;0;0;0;0
1587052495175;32;-3;-35;-15;34;-19;0;0;0;0;0
1587052495177;31;-12;-43;-10;37;-27;0;0;0;0;0
1587052495179;36;-15;-51;-11;44;-33;0;0;0;0;0
1587052495181;38;2;-36;-20;37;-17;0;0;0;0;0
1587052495183;42;35;-7;-39;25;14;0;0;0;0;0
1587052495185;41;50;9;-46;16;30;0;0;0;0;0
1587052495187;26;27;1;-27;13;14;0;0;0;0;0
1587052495189;18;12;-6;-15;12;3;0;0;0;0;0
1587052495191;19;9;-10;-14;15;0;0;0;0;0;0
1587052495193;23;1;-22;-12;23;-10;0;0;0;0;0
1587052495195;28;15;-13;-22;21;1;0;0;0;0;0
1587052495197;27;27;0;-27;14;14;0;0;0;0;0
1587052495199;26;10;-16;-18;21;-3;0;0;0;0;0
1587052495201;30;-9;-39;-11;35;-24;0;0;0;0;0
1587052495203;24;-20;-44;-2;34;-32;0;0;0;0;0
1587052495205;16;-14;-30;-1;23;-22;0;0;0;0;0
1587052495207;22;31;9;-27;7;20;0;0;0;0;0
1587052495209;29;59;30;-44;0;45;0;0;0;0;0
1587052495211;30;29;-1;-30;16;14;0;0;0;0;0
1587052495213;30;16;-14;-23;22;1;0;0;0;0;0
1587052495215;37;41;4;-39;17;23;0;0;0;0;0
1587052495217;47;67;20;-57;14;44;0;0;0;0;0
1587052495219;52;64;12;-58;20;38;0;0;0;0;0
1587052495221;49;35;-14;-42;32;11;0;0;0;0;0
1587052495223;35;-4;-39;-16;37;-21;0;0;0;0;0
1587052495225;34;-13;-47;-11;41;-30;0;0;0;0;0
1587052495227;47;25;-22;-36;35;2;0;0;0;0;0
1587052495229;47;21;-26;-34;37;-2;0;0;0;0;0
1587052495231;40;11;-29;-26;35;-9;0;0;0;0;0
1587052495233;47;30;-17;-39;32;7;0;0;0;0;0
1587052495235;52;40;-12;-46;32;14;0;0;0;0;0
1587052495237;49;33;-16;-41;33;9;0;0;0;0;0
1587052495239;48;38;-10;-43;29;14;0;0;0;0;0
1587052495241;40;41;1;-41;20;21;0;0;0;0;0
1587052495243;36;28;-8;-32;22;10;0;0;0;0;0
1587052495245;52;35;-17;-44;35;9;0;0;0;0;0
1587052495247;63;47;-16;-55;40;16;0;0;0;0;0
1587052495249;61;61;0;-61;31;31;0;0;0;0;0
1587052495251;63;73;10;-68;27;42;0;0;0;0;0
1587052495253;68;79;11;-74;29;45;0;0;0;0;0
1587052495255;65;85;20;-75;23;53;0;0;0;0;0
1587052495257;73;95;22;-84;26;59;0;0;0;0;0
1587052495259;78;96;18;-87;30;57;0;0;0;0;0
1587052495261;67;79;12;-73;28;46;0;0;0;0;0
1587052495263;67;87;20;-77;24;54;0;0;0;0;0
1587052495265;78;89;11;-84;34;50;0;0;0;0;0
1587052495267;84;69;-15;-77;50;27;0;0;0;0;0
1587052495269;73;62;-11;-68;42;26;0;0;0;0;0
1587052495271;66;78;12;-72;27;45;0;0;0;0;0
1587052495273;75;114;39;-95;18;77;0;0;0;0;0
1587052495275;66;101;35;-84;16;68;0;0;0;0;0
1587052495277;54;97;43;-76;6;70;0;0;0;0;0
1587052495279;63;121;58;-92;3;90;0;0;0;0;0
1587052495281;73;125;52;-99;11;89;0;0;0;0;0
1587052495283;77;132;55;-105;11;94;0;0;0;0;0
1587052495285;80;133;53;-107;14;93;0;0;0;0;0
1587052495287;74;111;37;-93;19;74;0;0;0;0;0
1587052495289;64;119;55;-92;5;87;0;0;0;0;0
1587052495291;70;141;71;-106;0;106;0;0;0;0;0
1587052495293;82;130;48;-106;17;89;0;0;0;0;0
1587052495295;86;124;38;-105;24;81;0;0;0;0;0
1587052495297;80;134;54;-107;13;94;0;0;0;0;0
1587052495299;86;134;48;-110;19;91;0;0;0;0;0
1587052495301;100;114;14;-107;43;64;0;0;0;0;0
1587052495303;90;111;21;-101;35;66;0;0;0;0;0
1587052495305;70;133;63;-102;4;98;0;0;0;0;0
1587052495307;58;146;88;-102;-15;117;0;0;0;0;0
1587052495309;58;147;89;-103;-15;118;0;0;0;0;0
1587052495311;69;129;60;-99;5;95;0;0;0;0;0
1587052495313;78;95;17;-87;31;56;0;0;0;0;0
1587052495315;86;90;4;-88;41;47;0;0;0;0;0
1587052495317;74;94;20;-84;27;57;0;0;0;0;0
1587052495319;49;87;38;-68;6;63;0;0;0;0;0
1587052495321;40;84;44;-62;-2;64;0;0;0;0;0
1587052495323;37;84;47;-61;-5;66;0;0;0;0;0
1587052495325;29;80;51;-55;-11;66;0;0;0;0;0
1587052495327;25;67;42;-46;-8;55;0;0;0;0;0
1587052495329;27;43;16;-35;6;30;0;0;0;0;0
1587052495331;27;48;21;-38;3;35;0;0;0;0;0
1587052495333;16;76;60;-46;-22;68;0;0;0;0;0
1587052495335;11;64;53;-38;-21;59;0;0;0;0;0
1587052495337;13;20;7;-17;3;14;0;0;0;0;0
1587052495339;11;2;-9;-7;10;-3;0;0;0;0;0
1587052495341;7;29;22;-18;-7;26;0;0;0;0;0
1587052495343;-2;55;57;-27;-29;56;0;0;0;0;0
1587052495345;-4;62;66;-29;-35;64;0;0;0;0;0
1587052495347;2;53;51;-28;-24;52;0;0;0;0;0
1587052495349;2;38;36;-20;-17;37;0;0;0;0;0
1587052495351;-7;15;22;-4;-14;19;0;0;0;0;0
1587052495353;-18;-19;-1;18;-8;-10;0;0;0;0;0
1587052495355;-14;-33;-19;23;3;-26;0;0;0;0;0
1587052495357;2;-21;-23;9;13;-22;0;0;0;0;0
1587052495359;5;-21;-26;8;16;-23;0;0;0;0;0
1587052495361;-3;-26;-23;14;10;-24;0;0;0;0;0
1587052495363;-12;-27;-15;19;2;-21;0;0;0;0;0
1587052495365;-18;-35;-17;26;0;-26;0;0;0;0;0
1587052495367;-14;-10;4;12;-9;-3;0;0;0;0;0
1587052495369;-8;13;21;-3;-14;17;0;0;0;0;0
1587052495371;-15;-10;5;12;-10;-2;0;0;0;0;0
1587052495373;-21;-23;-2;22;-9;-12;0;0;0;0;0
1587052495375;-9;-12;-3;10;-3;-7;0;0;0;0;0
1587052495377;-2;-10;-8;6;3;-9;0;0;0;0;0
1587052495379;-2;-17;-15;9;7;-16;0;0;0;0;0
1587052495381;3;-12;-15;4;9;-13;0;0;0;0;0
1587052495383;4;3;-1;-4;3;1;0;0;0;0;0
1587052495385;0;10;10;-5;-5;10;0;0;0;0;0
1587052495387;0;5;5;-3;-2;5;0;0;0;0;0
1587052495389;1;-11;-12;5;7;-11;0;0;0;0;0
1587052495391;1;-19;-20;9;11;-19;0;0;0;0;0
1587052495393;-7;-17;-10;12;2;-13;0;0;0;0;0
1587052495395;-10;-16;-6;13;-2;-11;0;0;0;0;0
1587052495397;-6;-8;-2;7;-2;-5;0;0;0;0;0
1587052495399;-6;-5;1;5;-3;-2;0;0;0;0;0
1587052495401;-8;-12;-4;10;-2;-8;0;0;0;0;0
1587052495403;-8;-19;-11;13;2;-15;0;0;0;0;0
1587052495405;-10;-23;-13;16;2;-18;0;0;0;0;0
1587052495407;-16;-26;-10;21;-3;-18;0;0;0;0;0
1587052495409;-25;-29;-4;27;-10;-16;0;0;0;0;0
1587052495411;-33;-20;13;26;-23;-3;0;0;0;0;0
1587052495413;-37;-14;23;25;-30;5;0;0;0;0;0
1587052495415;-38;-12;26;25;-32;7;0;0;0;0;0
1587052495417;-36;-12;24;24;-30;6;0;0;0;0;0
1587052495419;-35;-17;18;26;-26;1;0;0;0;0;0
1587052495421;-30;-3;27;16;-28;12;0;0;0;0;0
1587052495423;-22;3;25;9;-23;14;0;0;0;0;0
1587052495425;-15;3;18;6;-16;11;0;0;0;0;0
1587052495427;-16;-13;3;14;-9;-5;0;0;0;0;0
1587052495429;-21;-36;-15;28;-3;-25;0;0;0;0;0
1587052495431;-33;-49;-16;41;-8;-32;0;0;0;0;0
1587052495433;-44;-57;-13;50;-15;-35;0;0;0;0;0
1587052495435;-41;-61;-20;51;-10;-40;0;0;0;0;0
1587052495437;-32;-45;-13;38;-9;-29;0;0;0;0;0
1587052495439;-13;11;24;1;-18;18;0;0;0;0;0
1587052495441;11;53;42;-32;-15;48;0;0;0;0;0
1587052495443;15;63;48;-39;-16;56;0;0;0;0;0
1587052495445;0;32;32;-16;-16;32;0;0;0;0;0
1587052495447;-1;-1;0;1;0;0;0;0;0;0;0
1587052495449;1;-11;-12;5;7;-11;0;0;0;0;0
1587052495451;-2;-20;-18;11;8;-19;0;0;0;0;0
1587052495453;-7;-14;-7;10;0;-10;0;0;0;0;0
1587052495455;-14;-15;-1;14;-6;-8;0;0;0;0;0
1587052495457;-19;-19;0;19;-9;-9;0;0;0;0;0
1587052495459;-20;-1;19;10;-19;9;0;0;0;0;0
1587052495461;-23;-5;18;14;-20;7;0;0;0;0;0
1587052495463;-19;-13;6;16;-12;-3;0;0;0;0;0
1587052495465;-6;-5;1;5;-3;-2;0;0;0;0;0
1587052495467;-2;0;2;1;-2;1;0;0;0;0;0
1587052495469;-5;1;6;2;-5;4;0;0;0;0;0
1587052495471;-6;-2;4;4;-5;1;0;0;0;0;0
1587052495473;-6;-6;0;6;-3;-3;0;0;0;0;0
1587052495475;-20;-11;9;15;-14;-1;0;0;0;0;0
1587052495477;-20;-20;0;20;-10;-10;0;0;0;0;0
1587052495479;-16;-29;-13;22;-1;-21;0;0;0;0;0
1587052495481;-23;-35;-12;29;-5;-23;0;0;0;0;0
1587052495483;-16;-40;-24;28;4;-32;0;0;0;0;0
1587052495485;-8;-25;-17;16;5;-21;0;0;0;0;0
1587052495487;-4;8;12;-2;-8;10;0;0;0;0;0
1587052495489;-2;39;41;-19;-21;40;0;0;0;0;0
1587052495491;-8;26;34;-9;-21;30;0;0;0;0;0
1587052495493;-20;-16;4;18;-12;-6;0;0;0;0;0
1587052495495;-15;-27;-12;21;-1;-19;0;0;0;0;0
1587052495497;-7;-11;-4;9;-1;-7;0;0;0;0;0
1587052495499;-16;-12;4;14;-10;-4;0;0;0;0;0
1587052495501;-16;-14;2;15;-9;-6;0;0;0;0;0
1587052495503;-12;-16;-4;14;-4;-10;0;0;0;0;0
1587052495505;-18;-26;-8;22;-5;-17;0;0;0;0;0
1587052495507;-20;-16;4;18;-12;-6;0;0;0;0;0
1587052495509;-17;-10;7;13;-12;-1;0;0;0;0;0
1587052495511;-18;-29;-11;23;-3;-20;0;0;0;0;0
1587052495513;-21;-39;-18;30;-1;-28;0;0;0;0;0
1587052495515;-22;-23;-1;22;-10;-12;0;0;0;0;0
1587052495517;-19;-12;7;15;-13;-2;0;0;0;0;0
1587052495519;-9;-7;2;8;-5;-2;0;0;0;0;0
1587052495521;5;3;-2;-4;4;1;0;0;0;0;0
1587052495523;-4;-5;-1;4;-1;-3;0;0;0;0;0
1587052495525;-30;-42;-12;36;-9;-27;0;0;0;0;0
1587052495527;-33;-49;-16;41;-8;-32;0;0;0;0;0
1587052495529;-15;-14;1;14;-8;-6;0;0;0;0;0
1587052495531;-14;-14;0;14;-7;-7;0;0;0;0;0
1587052495533;-33;-39;-6;36;-13;-22;0;0;0;0;0
1587052495535;-34;-24;10;29;-22;-7;0;0;0;0;0
1587052495537;-21;-18;3;19;-12;-7;0;0;0;0;0
1587052495539;-13;-32;-19;22;3;-25;0;0;0;0;0
1587052495541;-9;-39;-30;24;11;-34;0;0;0;0;0
1587052495543;-12;-46;-34;29;11;-40;0;0;0;0;0
1587052495545;-14;-45;-31;29;9;-38;0;0;0;0;0
1587052495547;-15;-37;-22;26;4;-29;0;0;0;0;0
1587052495549;-14;-24;-10;19;-2;-17;0;0;0;0;0
1587052495551;-11;-13;-2;12;-4;-7;0;0;0;0;0
1587052495553;-13;-9;4;11;-8;-2;0;0;0;0;0
1587052495555;-21;-28;-7;24;-7;-17;0;0;0;0;0
1587052495557;-23;-60;-37;41;7;-48;0;0;0;0;0
1587052495559;-20;-58;-38;39;9;-48;0;0;0;0;0
1587052495561;-20;-38;-18;29;-1;-28;0;0;0;0;0
1587052495563;-15;-36;-21;25;3;-28;0;0;0;0;0
1587052495565;-18;-51;-33;34;8;-42;0;0;0;0;0
1587052495567;-15;-70;-55;42;20;-62;0;0;0;0;0
1587052495569;-17;-71;-54;44;19;-62;0;0;0;0;0
1587052495571;-28;-57;-29;42;1;-43;0;0;0;0;0
1587052495573;-21;-35;-14;28;-3;-24;0;0;0;0;0
1587052495575;-9;-12;-3;10;-3;-7;0;0;0;0;0
1587052495577;0;-15;-15;7;8;-15;0;0;0;0;0
1587052495579;0;-37;-37;18;19;-37;0;0;0;0;0
1587052495581;-5;-54;-49;29;22;-51;0;0;0;0;0
1587052495583;-9;-36;-27;22;9;-31;0;0;0;0;0
1587052495585;-15;-17;-2;16;-6;-9;0;0;0;0;0
1587052495587;-13;-14;-1;13;-6;-7;0;0;0;0;0
1587052495589;-5;-1;4;3;-4;2;0;0;0;0;0
1587052495591;-11;-15;-4;13;-3;-9;0;0;0;0;0
1587052495593;-29;-57;-28;43;0;-42;0;0;0;0;0
1587052495595;-27;-67;-40;47;7;-53;0;0;0;0;0
1587052495597;-12;-42;-30;27;9;-36;0;0;0;0;0
1587052495599;-6;-38;-32;22;13;-35;0;0;0;0;0
1587052495601;-6;-51;-45;28;20;-48;0;0;0;0;0
1587052495603;-9;-59;-50;34;21;-54;0;0;0;0;0
1587052495605;-6;-54;-48;30;21;-51;0;0;0;0;0
1587052495607;-10;-38;-28;24;9;-33;0;0;0;0;0
1587052495609;-12;-13;-1;12;-5;-7;0;0;0;0;0
1587052495611;-6;-5;1;5;-3;-2;0;0;0;0;0
1587052495613;-7;-20;-13;13;3;-16;0;0;0;0;0
1587052495615;-15;-42;-27;28;6;-34;0;0;0;0;0
1587052495617;-19;-70;-51;44;16;-60;0;0;0;0;0
1587052495619;-20;-87;-67;53;24;-77;0;0;0;0;0
1587052495621;-32;-89;-57;60;13;-73;0;0;0;0;0
1587052495623;-36;-91;-55;63;10;-73;0;0;0;0;0
1587052495625;-32;-85;-53;58;11;-69;0;0;0;0;0
1587052495627;-27;-79;-52;53;13;-65;0;0;0;0;0
1587052495629;-17;-68;-51;42;17;-59;0;0;0;0;0
1587052495631;-8;-54;-46;31;19;-50;0;0;0;0;0
1587052495633;-10;-57;-47;33;19;-52;0;0;0;0;0
1587052495635;-14;-54;-40;34;13;-47;0;0;0;0;0
1587052495637;-19;-56;-37;37;9;-46;0;0;0;0;0
1587052495639;-26;-66;-40;46;7;-53;0;0;0;0;0
1587052495641;-6;-44;-38;25;16;-41;0;0;0;0;0
1587052495643;-10;-50;-40;30;15;-45;0;0;0;0;0
1587052495645;-45;-89;-44;67;0;-66;0;0;0;0;0
1587052495647;-29;-47;-18;38;-5;-32;0;0;0;0;0
1587052495649;1;-1;-2;0;2;-1;0;0;0;0;0
1587052495651;10;-9;-19;-1;15;-14;0;0;0;0;0
1587052495653;8;-23;-31;7;20;-27;0;0;0;0;0
1587052495655;-11;-39;-28;25;9;-33;0;0;0;0;0
1587052495657;-14;-39;-25;26;6;-32;0;0;0;0;0
1587052495659;-5;-15;-10;10;3;-12;0;0;0;0;0
1587052495661;-6;-7;-1;6;-2;-4;0;0;0;0;0
1587052495663;-2;-15;-13;8;6;-14;0;0;0;0;0
1587052495665;9;-8;-17;-1;13;-12;0;0;0;0;0
1587052495667;10;-16;-26;3;18;-21;0;0;0;0;0
1587052495669;4;-18;-22;7;13;-20;0;0;0;0;0
1587052495671;-1;6;7;-3;-4;7;0;0;0;0;0
1587052495673;4;21;17;-13;-6;19;0;0;0;0;0
1587052495675;14;26;12;-20;1;19;0;0;0;0;0
1587052495677;21;26;5;-24;8;16;0;0;0;0;0
1587052495679;26;26;0;-26;13;13;0;0;0;0;0
1587052495681;24;17;-7;-21;16;5;0;0;0;0;0
1587052495683;15;10;-5;-13;10;3;0;0;0;0;0
1587052495685;2;-1;-3;-1;3;-2;0;0;0;0;0
1587052495687;-15;-28;-13;21;-1;-20;0;0;0;0;0
1587052495689;-12;-29;-17;20;3;-23;0;0;0;0;0
1587052495691;6;-8;-14;1;10;-11;0;0;0;0;0
1587052495693;15;18;3;-17;6;11;0;0;0;0;0
1587052495695;15;24;9;-20;3;17;0;0;0;0;0
1587052495697;10;-2;-12;-4;11;-7;0;0;0;0;0
1587052495699;7;-26;-33;9;20;-29;0;0;0;0;0
1587052495701;9;-28;-37;9;23;-32;0;0;0;0;0
1587052495703;13;-25;-38;6;26;-31;0;0;0;0;0
1587052495705;14;-27;-41;6;28;-34;0;0;0;0;0
1587052495707;16;0;-16;-8;16;-8;0;0;0;0;0
1587052495709;15;9;-6;-12;11;2;0;0;0;0;0
1587052495711;12;-26;-38;7;25;-32;0;0;0;0;0
1587052495713;8;-43;-51;17;30;-47;0;0;0;0;0
1587052495715;0;-55;-55;27;28;-55;0;0;0;0;0
1587052495717;-2;-70;-68;36;33;-69;0;0;0;0;0
1587052495719;-4;-72;-68;38;32;-70;0;0;0;0;0
1587052495721;-8;-58;-50;33;21;-54;0;0;0;0;0
1587052495723;-4;-47;-43;25;20;-45;0;0;0;0;0
1587052495725;-2;-63;-61;32;30;-62;0;0;0;0;0
1587052495727;4;-69;-73;32;39;-71;0;0;0;0;0
1587052495729;12;-55;-67;21;40;-61;0;0;0;0;0
1587052495731;7;-41;-48;17;28;-44;0;0;0;0;0
1587052495733;2;-38;-40;18;21;-39;0;0;0;0;0
1587052495735;-3;-34;-31;18;14;-32;0;0;0;0;0
1587052495737;-17;-46;-29;31;6;-37;0;0;0;0;0
1587052495739;-23;-91;-68;57;23;-79;0;0;0;0;0
1587052495741;-12;-99;-87;55;38;-93;0;0;0;0;0
1587052495743;4;-69;-73;32;39;-71;0;0;0;0;0
1587052495745;5;-70;-75;32;40;-72;0;0;0;0;0
1587052495747;-6;-78;-72;42;33;-75;0;0;0;0;0
1587052495749;-13;-76;-63;44;25;-69;0;0;0;0;0
1587052495751;-18;-89;-71;53;27;-80;0;0;0;0;0
1587052495753;-19;-94;-75;56;28;-84;0;0;0;0;0
1587052495755;-20;-87;-67;53;24;-77;0;0;0;0;0
1587052495757;-21;-84;-63;52;21;-73;0;0;0;0;0
1587052495759;-11;-80;-69;45;29;-74;0;0;0;0;0
1587052495761;-3;-75;-72;39;35;-73;0;0;0;0;0
1587052495763;1;-54;-55;26;28;-54;0;0;0;0;0
1587052495765;-5;-28;-23;16;9;-25;0;0;0;0;0
1587052495767;-5;-29;-24;17;10;-26;0;0;0;0;0
1587052495769;-2;-48;-46;25;22;-47;0;0;0;0;0
1587052495771;-6;-65;-59;35;27;-62;0;0;0;0;0
1587052495773;-6;-74;-68;40;31;-71;0;0;0;0;0
1587052495775;4;-70;-74;33;39;-72;0;0;0;0;0
1587052495777;6;-69;-75;31;41;-72;0;0;0;0;0
1587052495779;0;-63;-63;31;32;-63;0;0;0;0;0
1587052495781;-2;-53;-51;27;25;-52;0;0;0;0;0
1587052495783;-4;-62;-58;33;27;-60;0;0;0;0;0
1587052495785;-2;-63;-61;32;30;-62;0;0;0;0;0
1587052495787;-12;-56;-44;34;16;-50;0;0;0;0;0
1587052495789;-31;-70;-39;50;4;-54;0;0;0;0;0
1587052495791;-34;-93;-59;63;13;-76;0;0;0;0;0
1587052495793;-26;-106;-80;66;27;-93;0;0;0;0;0
1587052495795;-23;-107;-84;65;31;-95;0;0;0;0;0
1587052495797;-29;-118;-89;73;30;-103;0;0;0;0;0
1587052495799;-35;-133;-98;84;32;-115;0;0;0;0;0
1587052495801;-28;-126;-98;77;35;-112;0;0;0;0;0
1587052495803;-4;-81;-77;42;37;-79;0;0;0;0;0
1587052495805;26;-35;-61;4;44;-48;0;0;0;0;0
1587052495807;44;-20;-64;-12;54;-42;0;0;0;0;0
1587052495809;57;12;-45;-35;51;-16;0;0;0;0;0
1587052495811;92;75;-17;-84;55;29;0;0;0;0;0
1587052495813;146;145;-1;-146;74;72;0;0;0;0;0
1587052495815;201;217;16;-209;93;117;0;0;0;0;0
1587052495817;230;282;52;-256;89;167;0;0;0;0;0
1587052495819;231;344;113;-288;59;229;0;0;0;0;0
1587052495821;222;433;211;-328;6;322;0;0;0;0;0
1587052495823;199;530;331;-365;-66;431;0;0;0;0;0
1587052495825;168;609;441;-389;-136;525;0;0;0;0;0
1587052495827;135;678;543;-407;-204;611;0;0;0;0;0
1587052495829;100;707;607;-404;-253;657;0;0;0;0;0
1587052495831;49;681;632;-365;-291;657;0;0;0;0;0
1587052495833;4;626;622;-315;-309;624;0;0;0;0;0
1587052495835;-12;549;561;-269;-286;555;0;0;0;0;0
1587052495837;-20;441;461;-211;-240;451;0;0;0;0;0
1587052495839;-30;332;362;-151;-196;347;0;0;0;0;0
1587052495841;-37;233;270;-98;-153;252;0;0;0;0;0
1587052495843;-37;141;178;-52;-107;160;0;0;0;0;0
1587052495845;-38;74;112;-18;-75;93;0;0;0;0;0
1587052495847;-39;26;65;6;-52;46;0;0;0;0;0
1587052495849;-38;2;40;18;-39;21;0;0;0;0;0
1587052495851;-38;-10;28;24;-33;9;0;0;0;0;0
1587052495853;-31;-26;5;28;-18;-10;0;0;0;0;0
1587052495855;-25;-33;-8;29;-8;-20;0;0;0;0;0
1587052495857;-32;-32;0;32;-16;-16;0;0;0;0;0
1587052495859;-29;-34;-5;31;-12;-19;0;0;0;0;0
1587052495861;-7;-29;-22;18;8;-25;0;0;0;0;0
1587052495863;4;-10;-14;3;9;-12;0;0;0;0;0
1587052495865;3;12;9;-8;-3;11;0;0;0;0;0
1587052495867;7;13;6;-10;1;10;0;0;0;0;0
1587052495869;11;0;-11;-6;11;-5;0;0;0;0;0
1587052495871;10;-4;-14;-3;12;-9;0;0;0;0;0
1587052495873;10;-17;-27;3;19;-22;0;0;0;0;0
1587052495875;15;-19;-34;2;25;-26;0;0;0;0;0
1587052495877;15;-10;-25;-3;20;-17;0;0;0;0;0
1587052495879;14;-6;-20;-4;17;-13;0;0;0;0;0
1587052495881;11;-13;-24;1;18;-18;0;0;0;0;0
1587052495883;8;-24;-32;8;20;-28;0;0;0;0;0
1587052495885;8;-23;-31;7;20;-27;0;0;0;0;0
1587052495887;4;-7;-11;1;8;-9;0;0;0;0;0
1587052495889;5;7;2;-6;2;5;0;0;0;0;0
1587052495891;11;-9;-20;-1;16;-14;0;0;0;0;0
1587052495893;5;-31;-36;13;21;-33;0;0;0;0;0
1587052495895;-5;-34;-29;19;12;-31;0;0;0;0;0
1587052495897;3;-20;-23;8;13;-21;0;0;0;0;0
1587052495899;24;-4;-28;-10;26;-16;0;0;0;0;0
1587052495901;30;-1;-31;-15;31;-16;0;0;0;0;0
1587052495903;28;-13;-41;-8;35;-27;0;0;0;0;0
1587052495905;25;-31;-56;3;41;-43;0;0;0;0;0
1587052495907;14;-40;-54;13;34;-47;0;0;0;0;0
1587052495909;5;-30;-35;12;20;-32;0;0;0;0;0
1587052495911;3;-14;-17;5;10;-15;0;0;0;0;0
1587052495913;3;-7;-10;2;7;-8;0;0;0;0;0
1587052495915;11;-21;-32;5;22;-26;0;0;0;0;0
1587052495917;19;-16;-35;-2;27;-25;0;0;0;0;0
1587052495919;19;30;11;-25;4;21;0;0;0;0;0
1587052495921;22;73;51;-48;-14;62;0;0;0;0;0
1587052495923;30;47;17;-39;7;32;0;0;0;0;0
1587052495925;27;-7;-34;-10;31;-20;0;0;0;0;0
1587052495927;14;-15;-29;0;22;-22;0;0;0;0;0
1587052495929;15;-5;-20;-5;18;-12;0;0;0;0;0
1587052495931;23;-5;-28;-9;26;-16;0;0;0;0;0
1587052495933;24;-20;-44;-2;34;-32;0;0;0;0;0
1587052495935;25;-23;-48;-1;37;-35;0;0;0;0;0
1587052495937;23;-19;-42;-2;33;-30;0;0;0;0;0
1587052495939;23;-20;-43;-2;33;-31;0;0;0;0;0
1587052495941;26;-13;-39;-7;33;-26;0;0;0;0;0
1587052495943;26;-9;-35;-9;31;-22;0;0;0;0;0
1587052495945;27;-10;-37;-9;32;-23;0;0;0;0;0
1587052495947;29;-8;-37;-11;33;-22;0;0;0;0;0
1587052495949;31;-2;-33;-15;32;-17;0;0;0;0;0
1587052495951;27;-3;-30;-12;29;-16;0;0;0;0;0
1587052495953;18;-10;-28;-4;23;-19;0;0;0;0;0
1587052495955;16;-7;-23;-5;20;-15;0;0;0;0;0
1587052495957;17;-5;-22;-6;20;-13;0;0;0;0;0
1587052495959;24;-4;-28;-10;26;-16;0;0;0;0;0
1587052495961;28;-6;-34;-11;31;-20;0;0;0;0;0
1587052495963;32;-5;-37;-14;35;-21;0;0;0;0;0
1587052495965;31;-2;-33;-15;32;-17;0;0;0;0;0
1587052495967;17;-5;-22;-6;20;-13;0;0;0;0;0
1587052495969;13;-10;-23;-2;18;-16;0;0;0;0;0
1587052495971;19;15;-4;-17;12;6;0;0;0;0;0
1587052495973;20;50;30;-35;-5;40;0;0;0;0;0
1587052495975;22;39;17;-31;3;28;0;0;0;0;0
1587052495977;26;30;4;-28;11;17;0;0;0;0;0
1587052495979;23;20;-3;-22;13;9;0;0;0;0;0
1587052495981;21;6;-15;-14;18;-4;0;0;0;0;0
1587052495983;27;-8;-35;-10;31;-21;0;0;0;0;0
1587052495985;24;-30;-54;3;39;-42;0;0;0;0;0
1587052495987;13;-15;-28;1;21;-21;0;0;0;0;0
1587052495989;13;7;-6;-10;10;1;0;0;0;0;0
1587052495991;13;12;-1;-13;7;6;0;0;0;0;0
1587052495993;13;34;21;-24;-4;28;0;0;0;0;0
1587052495995;11;45;34;-28;-11;40;0;0;0;0;0
1587052495997;15;34;19;-25;-2;27;0;0;0;0;0
1587052495999;23;-4;-27;-10;25;-15;0;0;0;0;0
1587052496001;22;-44;-66;11;44;-55;0;0;0;0;0
1587052496003;17;-40;-57;11;37;-48;0;0;0;0;0
1587052496005;19;-17;-36;-1;28;-26;0;0;0;0;0
1587052496007;22;5;-17;-14;20;-6;0;0;0;0;0
1587052496009;23;18;-5;-21;14;7;0;0;0;0;0
1587052496011;26;14;-12;-20;19;1;0;0;0;0;0
1587052496013;24;3;-21;-14;23;-9;0;0;0;0;0
1587052496015;32;0;-32;-16;32;-16;0;0;0;0;0
1587052496017;47;-1;-48;-23;48;-24;0;0;0;0;0
1587052496019;47;-4;-51;-22;49;-27;0;0;0;0;0
1587052496021;39;-17;-56;-11;48;-36;0;0;0;0;0
1587052496023;40;-12;-52;-14;46;-32;0;0;0;0;0
1587052496025;37;48;11;-43;13;30;0;0;0;0;0
1587052496027;33;76;43;-55;-5;60;0;0;0;0;0
1587052496029;37;37;0;-37;19;19;0;0;0;0;0
1587052496031;34;7;-27;-21;31;-10;0;0;0;0;0
1587052496033;26;6;-20;-16;23;-7;0;0;0;0;0
1587052496035;33;18;-15;-26;24;2;0;0;0;0;0
1587052496037;44;41;-3;-43;24;19;0;0;0;0;0
1587052496039;44;61;17;-53;14;39;0;0;0;0;0
1587052496041;40;53;13;-47;14;33;0;0;0;0;0
1587052496043;31;36;5;-34;13;21;0;0;0;0;0
1587052496045;19;21;2;-20;9;12;0;0;0;0;0
1587052496047;23;19;-4;-21;14;8;0;0;0;0;0
1587052496049;41;26;-15;-34;28;6;0;0;0;0;0
1587052496051;58;38;-20;-48;39;9;0;0;0;0;0
1587052496053;68;35;-33;-52;51;1;0;0;0;0;0
1587052496055;65;10;-55;-38;60;-22;0;0;0;0;0
1587052496057;57;12;-45;-35;51;-16;0;0;0;0;0
1587052496059;60;34;-26;-47;43;4;0;0;0;0;0
1587052496061;65;44;-21;-55;43;12;0;0;0;0;0
1587052496063;66;53;-13;-60;40;20;0;0;0;0;0
1587052496065;71;69;-2;-70;37;34;0;0;0;0;0
1587052496067;59;55;-4;-57;32;26;0;0;0;0;0
1587052496069;40;22;-18;-31;29;2;0;0;0;0;0
1587052496071;40;39;-1;-40;21;19;0;0;0;0;0
1587052496073;48;66;18;-57;15;42;0;0;0;0;0
1587052496075;56;44;-12;-50;34;16;0;0;0;0;0
1587052496077;65;25;-40;-45;53;-7;0;0;0;0;0
1587052496079;72;31;-41;-52;57;-5;0;0;0;0;0
1587052496081;71;46;-25;-59;48;11;0;0;0;0;0
1587052496083;65;55;-10;-60;38;23;0;0;0;0;0
1587052496085;59;55;-4;-57;32;26;0;0;0;0;0
1587052496087;55;44;-11;-50;33;17;0;0;0;0;0
1587052496089;59;35;-24;-47;42;6;0;0;0;0;0
1587052496091;63;51;-12;-57;38;20;0;0;0;0;0
1587052496093;68;81;13;-75;28;47;0;0;0;0;0
1587052496095;75;91;16;-83;30;54;0;0;0;0;0
1587052496097;71;96;25;-84;23;61;0;0;0;0;0
1587052496099;57;101;44;-79;7;73;0;0;0;0;0
1587052496101;62;86;24;-74;19;55;0;0;0;0;0
1587052496103;75;77;2;-76;37;40;0;0;0;0;0
1587052496105;70;86;16;-78;27;51;0;0;0;0;0
1587052496107;65;90;25;-78;20;58;0;0;0;0;0
1587052496109;64;71;7;-68;29;39;0;0;0;0;0
1587052496111;58;40;-18;-49;38;11;0;0;0;0;0
1587052496113;47;23;-24;-35;36;0;0;0;0;0;0
1587052496115;32;23;-9;-28;21;7;0;0;0;0;0
1587052496117;30;26;-4;-28;17;11;0;0;0;0;0
1587052496119;29;13;-16;-21;23;-1;0;0;0;0;0
1587052496121;20;6;-14;-13;17;-4;0;0;0;0;0
1587052496123;17;39;22;-28;-2;31;0;0;0;0;0
1587052496125;25;69;44;-47;-9;57;0;0;0;0;0
1587052496127;40;75;35;-58;3;55;0;0;0;0;0
1587052496129;45;72;27;-59;9;50;0;0;0;0;0
1587052496131;32;47;15;-40;9;31;0;0;0;0;0
1587052496133;21;22;1;-22;10;12;0;0;0;0;0
1587052496135;15;2;-13;-9;14;-5;0;0;0;0;0
1587052496137;9;-5;-14;-2;12;-9;0;0;0;0;0
1587052496139;11;-1;-12;-5;12;-6;0;0;0;0;0
1587052496141;10;-8;-18;-1;14;-13;0;0;0;0;0
1587052496143;1;-26;-27;12;14;-26;0;0;0;0;0
1587052496145;4;-22;-26;9;15;-24;0;0;0;0;0
1587052496147;12;-9;-21;-2;17;-15;0;0;0;0;0
1587052496149;-1;-27;-26;14;13;-26;0;0;0;0;0
1587052496151;-9;-28;-19;18;5;-23;0;0;0;0;0
1587052496153;-5;-2;3;3;-4;1;0;0;0;0;0
1587052496155;-2;5;7;-2;-4;6;0;0;0;0;0
1587052496157;5;-1;-6;-2;6;-3;0;0;0;0;0
1587052496159;7;-13;-20;3;14;-16;0;0;0;0;0
1587052496161;-7;-29;-22;18;8;-25;0;0;0;0;0
1587052496163;-16;-40;-24;28;4;-32;0;0;0;0;0
1587052496165;-14;-63;-49;38;18;-56;0;0;0;0;0
1587052496167;-24;-72;-48;48;12;-60;0;0;0;0;0
1587052496169;-30;-39;-9;34;-10;-24;0;0;0;0;0
1587052496171;-25;-17;8;21;-16;-4;0;0;0;0;0
1587052496173;-25;-27;-2;26;-11;-14;0;0;0;0;0
1587052496175;-27;-27;0;27;-13;-13;0;0;0;0;0
1587052496177;-30;-10;20;20;-25;5;0;0;0;0;0
1587052496179;-34;-9;25;21;-29;8;0;0;0;0;0
1587052496181;-35;-23;12;29;-23;-5;0;0;0;0;0
1587052496183;-29;-26;3;27;-16;-11;0;0;0;0;0
1587052496185;-25;-39;-14;32;-5;-26;0;0;0;0;0
1587052496187;-26;-64;-38;45;6;-51;0;0;0;0;0
1587052496189;-27;-78;-51;52;12;-64;0;0;0;0;0
1587052496191;-22;-71;-49;46;14;-60;0;0;0;0;0
1587052496193;-14;-54;-40;34;13;-47;0;0;0;0;0
1587052496195;-14;-44;-30;29;8;-37;0;0;0;0;0
1587052496197;-18;-33;-15;25;-1;-24;0;0;0;0;0
1587052496199;-23;-38;-15;30;-4;-26;0;0;0;0;0
1587052496201;-22;-51;-29;36;4;-40;0;0;0;0;0
1587052496203;-18;-58;-40;38;11;-49;0;0;0;0;0
1587052496205;-16;-57;-41;36;13;-49;0;0;0;0;0
1587052496207;-11;-22;-11;16;0;-16;0;0;0;0;0
1587052496209;-10;-1;9;5;-9;4;0;0;0;0;0
1587052496211;-13;-22;-9;17;-2;-15;0;0;0;0;0
1587052496213;-27;-40;-13;33;-7;-26;0;0;0;0;0
1587052496215;-36;-18;18;27;-27;0;0;0;0;0;0
1587052496217;-29;0;29;14;-29;15;0;0;0;0;0
1587052496219;-28;-28;0;28;-14;-14;0;0;0;0;0
1587052496221;-28;-49;-21;38;-3;-35;0;0;0;0;0
1587052496223;-22;-37;-15;29;-3;-26;0;0;0;0;0
1587052496225;-17;-19;-2;18;-7;-10;0;0;0;0;0
1587052496227;-15;-27;-12;21;-1;-19;0;0;0;0;0
1587052496229;-24;-35;-11;29;-6;-23;0;0;0;0;0
1587052496231;-29;-29;0;29;-14;-14;0;0;0;0;0
1587052496233;-28;-43;-15;35;-6;-29;0;0;0;0;0
1587052496235;-32;-56;-24;44;-4;-40;0;0;0;0;0
1587052496237;-35;-48;-13;41;-11;-30;0;0;0;0;0
1587052496239;-34;-48;-14;41;-10;-31;0;0;0;0;0
1587052496241;-29;-47;-18;38;-5;-32;0;0;0;0;0
1587052496243;-24;-43;-19;33;-2;-31;0;0;0;0;0
1587052496245;-24;-54;-30;39;3;-42;0;0;0;0;0
1587052496247;-27;-55;-28;41;1;-41;0;0;0;0;0
1587052496249;-27;-29;-2;28;-12;-15;0;0;0;0;0
1587052496251;-27;-11;16;19;-21;3;0;0;0;0;0
1587052496253;-28;-20;8;24;-18;-6;0;0;0;0;0
1587052496255;-35;-50;-15;42;-10;-32;0;0;0;0;0
1587052496257;-40;-71;-31;55;-4;-51;0;0;0;0;0
1587052496259;-41;-71;-30;56;-5;-50;0;0;0;0;0
1587052496261;-38;-63;-25;50;-6;-44;0;0;0;0;0
1587052496263;-27;-45;-18;36;-4;-31;0;0;0;0;0
1587052496265;-27;-39;-12;33;-7;-25;0;0;0;0;0
1587052496267;-23;-37;-14;30;-4;-25;0;0;0;0;0
1587052496269;-10;-37;-27;23;9;-32;0;0;0;0;0
1587052496271;-15;-33;-18;24;2;-25;0;0;0;0;0
1587052496273;-23;-23;0;23;-11;-11;0;0;0;0;0
1587052496275;-22;-23;-1;22;-10;-12;0;0;0;0;0
1587052496277;-25;-25;0;25;-12;-12;0;0;0;0;0
1587052496279;-32;-26;6;29;-19;-10;0;0;0;0;0
1587052496281;-30;-32;-2;31;-14;-17;0;0;0;0;0
1587052496283;-27;-36;-9;31;-9;-22;0;0;0;0;0
1587052496285;-27;-30;-3;28;-12;-16;0;0;0;0;0
1587052496287;-28;-25;3;26;-15;-11;0;0;0;0;0
1587052496289;-31;-34;-3;32;-14;-18;0;0;0;0;0
1587052496291;-35;-52;-17;43;-9;-34;0;0;0;0;0
1587052496293;-32;-54;-22;43;-5;-38;0;0;0;0;0
1587052496295;-31;-52;-21;41;-5;-36;0;0;0;0;0
1587052496297;-31;-54;-23;42;-4;-38;0;0;0;0;0
1587052496299;-28;-55;-27;41;0;-41;0;0;0;0;0
1587052496301;-24;-51;-27;37;2;-39;0;0;0;0;0
1587052496303;-11;-32;-21;21;5;-26;0;0;0;0;0
1587052496305;-7;-25;-18;16;6;-21;0;0;0;0;0
1587052496307;-20;-50;-30;35;5;-40;0;0;0;0;0
1587052496309;-21;-44;-23;32;1;-33;0;0;0;0;0
1587052496311;-15;-10;5;12;-10;-2;0;0;0;0;0
1587052496313;-19;-9;10;14;-14;1;0;0;0;0;0
1587052496315;-27;-22;5;24;-16;-8;0;0;0;0;0
1587052496317;-28;-25;3;26;-15;-11;0;0;0;0;0
1587052496319;-28;-31;-3;29;-12;-17;0;0;0;0;0
1587052496321;-26;-29;-3;27;-11;-16;0;0;0;0;0
1587052496323;-25;-28;-3;26;-11;-15;0;0;0;0;0
1587052496325;-26;-38;-12;32;-7;-25;0;0;0;0;0
1587052496327;-23;-37;-14;30;-4;-25;0;0;0;0;0
1587052496329;-22;-28;-6;25;-8;-17;0;0;0;0;0
1587052496331;-24;-25;-1;24;-11;-13;0;0;0;0;0
1587052496333;-23;-51;-28;37;3;-39;0;0;0;0;0
1587052496335;-26;-67;-41;46;8;-54;0;0;0;0;0
1587052496337;-32;-48;-16;40;-8;-32;0;0;0;0;0
1587052496339;-34;-33;1;33;-17;-16;0;0;0;0;0
1587052496341;-27;-26;1;26;-14;-12;0;0;0;0;0
1587052496343;-22;-30;-8;26;-7;-19;0;0;0;0;0
1587052496345;-26;-38;-12;32;-7;-25;0;0;0;0;0
1587052496347;-29;-40;-11;34;-9;-25;0;0;0;0;0
1587052496349;-27;-43;-16;35;-5;-29;0;0;0;0;0
1587052496351;-26;-47;-21;36;-2;-34;0;0;0;0;0
1587052496353;-27;-53;-26;40;0;-39;0;0;0;0;0
1587052496355;-26;-54;-28;40;1;-41;0;0;0;0;0
1587052496357;-17;-38;-21;27;2;-29;0;0;0;0;0
1587052496359;-17;-33;-16;25;0;-24;0;0;0;0;0
1587052496361;-27;-42;-15;34;-6;-28;0;0;0;0;0
1587052496363;-24;-37;-13;30;-5;-25;0;0;0;0;0
1587052496365;-15;-38;-23;26;4;-30;0;0;0;0;0
1587052496367;-22;-49;-27;35;3;-38;0;0;0;0;0
1587052496369;-29;-56;-27;42;-1;-41;0;0;0;0;0
1587052496371;-28;-62;-34;45;3;-48;0;0;0;0;0
1587052496373;-26;-45;-19;35;-3;-32;0;0;0;0;0
1587052496375;-18;-14;4;16;-11;-5;0;0;0;0;0
1587052496377;-15;-16;-1;15;-7;-8;0;0;0;0;0
1587052496379;-17;-15;2;16;-9;-6;0;0;0;0;0
1587052496381;-18;1;19;8;-18;10;0;0;0;0;0
1587052496383;-25;3;28;11;-26;16;0;0;0;0;0
1587052496385;-38;2;40;18;-39;21;0;0;0;0;0
1587052496387;-44;-19;25;31;-34;3;0;0;0;0;0
1587052496389;-41;-58;-17;49;-12;-37;0;0;0;0;0
1587052496391;-36;-70;-34;53;-1;-52;0;0;0;0;0
1587052496393;-32;-60;-28;46;-2;-44;0;0;0;0;0
1587052496395;-33;-61;-28;47;-2;-44;0;0;0;0;0
1587052496397;-29;-66;-37;47;4;-51;0;0;0;0;0
1587052496399;-20;-57;-37;38;9;-47;0;0;0;0;0
1587052496401;-24;-45;-21;34;-1;-33;0;0;0;0;0
1587052496403;-34;-43;-9;38;-12;-26;0;0;0;0;0
1587052496405;-33;-44;-11;38;-11;-27;0;0;0;0;0
1587052496407;-29;-43;-14;36;-7;-28;0;0;0;0;0
1587052496409;-31;-46;-15;38;-8;-30;0;0;0;0;0
1587052496411;-39;-43;-4;41;-17;-23;0;0;0;0;0
1587052496413;-42;-27;15;34;-28;-6;0;0;0;0;0
1587052496415;-31;-20;11;25;-21;-4;0;0;0;0;0
1587052496417;-26;-27;-1;26;-12;-14;0;0;0;0;0
1587052496419;-30;-43;-13;36;-8;-28;0;0;0;0;0
1587052496421;-29;-55;-26;42;-1;-40;0;0;0;0;0
1587052496423;-25;-60;-35;42;5;-47;0;0;0;0;0
1587052496425;-29;-58;-29;43;0;-43;0;0;0;0;0
1587052496427;-36;-47;-11;41;-12;-29;0;0;0;0;0
1587052496429;-39;-38;1;38;-20;-18;0;0;0;0;0
1587052496431;-42;-45;-3;43;-19;-24;0;0;0;0;0
1587052496433;-38;-55;-17;46;-10;-36;0;0;0;0;0
1587052496435;-30;-52;-22;41;-4;-37;0;0;0;0;0
1587052496437;-29;-43;-14;36;-7;-28;0;0;0;0;0
1587052496439;-26;-33;-7;29;-9;-20;0;0;0;0;0
1587052496441;-27;-39;-12;33;-7;-25;0;0;0;0;0
1587052496443;-31;-46;-15;38;-8;-30;0;0;0;0;0
1587052496445;-33;-39;-6;36;-13;-22;0;0;0;0;0
1587052496447;-31;-18;13;24;-22;-2;0;0;0;0;0
1587052496449;-24;3;27;10;-25;15;0;0;0;0;0
1587052496451;-21;-12;9;16;-15;-1;0;0;0;0;0
1587052496453;-24;-44;-20;34;-2;-32;0;0;0;0;0
1587052496455;-25;-54;-29;39;2;-41;0;0;0;0;0
1587052496457;-25;-51;-26;38;1;-38;0;0;0;0;0
1587052496459;-27;-44;-17;35;-5;-30;0;0;0;0;0
1587052496461;-29;-49;-20;39;-4;-34;0;0;0;0;0
1587052496463;-29;-55;-26;42;-1;-40;0;0;0;0;0
1587052496465;-32;-45;-13;38;-9;-29;0;0;0;0;0
1587052496467;-29;-27;2;28;-15;-12;0;0;0;0;0
1587052496469;-25;-26;-1;25;-12;-13;0;0;0;0;0
1587052496471;-26;-56;-30;41;2;-43;0;0;0;0;0
1587052496473;-22;-66;-44;44;11;-55;0;0;0;0;0
1587052496475;-25;-52;-27;38;1;-39;0;0;0;0;0
1587052496477;-29;-30;-1;29;-14;-15;0;0;0;0;0
1587052496479;-26;-21;5;23;-15;-8;0;0;0;0;0
1587052496481;-24;-43;-19;33;-2;-31;0;0;0;0;0
1587052496483;-27;-56;-29;41;1;-42;0;0;0;0;0
1587052496485;-35;-55;-20;45;-7;-37;0;0;0;0;0
1587052496487;-39;-62;-23;50;-8;-42;0;0;0;0;0
1587052496489;-31;-51;-20;41;-5;-35;0;0;0;0;0
1587052496491;-22;-32;-10;27;-6;-21;0;0;0;0;0
1587052496493;-22;-33;-11;27;-5;-22;0;0;0;0;0
1587052496495;-25;-38;-13;31;-6;-25;0;0;0;0;0
1587052496497;-26;-42;-16;34;-5;-29;0;0;0;0;0
1587052496499;-36;-57;-21;46;-7;-39;0;0;0;0;0
1587052496501;-47;-66;-19;56;-14;-42;0;0;0;0;0
1587052496503;-33;-42;-9;37;-12;-25;0;0;0;0;0
1587052496505;-8;-22;-14;15;3;-18;0;0;0;0;0
1587052496507;-3;-13;-10;8;4;-11;0;0;0;0;0
1587052496509;-12;-10;2;11;-7;-4;0;0;0;0;0
1587052496511;-16;-16;0;16;-8;-8;0;0;0;0;0
1587052496513;-12;-8;4;10;-8;-2;0;0;0;0;0
1587052496515;-13;-9;4;11;-8;-2;0;0;0;0;0
1587052496517;-14;-12;2;13;-8;-5;0;0;0;0;0
1587052496519;-5;3;8;1;-6;6;0;0;0;0;0
1587052496521;3;14;11;-9;-4;13;0;0;0;0;0
1587052496523;2;10;8;-6;-3;9;0;0;0;0;0
1587052496525;-3;9;12;-3;-7;11;0;0;0;0;0
1587052496527;-4;35;39;-16;-21;37;0;0;0;0;0
1587052496529;-7;58;65;-26;-36;62;0;0;0;0;0
1587052496531;-9;56;65;-24;-37;61;0;0;0;0;0
1587052496533;-9;47;56;-19;-32;52;0;0;0;0;0
1587052496535;-8;27;35;-10;-21;31;0;0;0;0;0
1587052496537;-7;-6;1;6;-4;-2;0;0;0;0;0
1587052496539;-8;-30;-22;19;7;-26;0;0;0;0;0
1587052496541;-7;-28;-21;17;7;-24;0;0;0;0;0
1587052496543;-9;-11;-2;10;-3;-6;0;0;0;0;0
1587052496545;-11;7;18;2;-14;13;0;0;0;0;0
1587052496547;-8;10;18;-1;-13;14;0;0;0;0;0
1587052496549;-2;3;5;-1;-3;4;0;0;0;0;0
1587052496551;4;-11;-15;3;10;-13;0;0;0;0;0
1587052496553;3;-29;-32;13;18;-30;0;0;0;0;0
1587052496555;-11;-13;-2;12;-4;-7;0;0;0;0;0
1587052496557;-12;15;27;-2;-19;21;0;0;0;0;0
1587052496559;-4;4;8;0;-6;6;0;0;0;0;0
1587052496561;0;-36;-36;18;18;-36;0;0;0;0;0
1587052496563;-4;-68;-64;36;30;-66;0;0;0;0;0
1587052496565;-28;-77;-49;52;11;-63;0;0;0;0;0
1587052496567;-36;-75;-39;55;2;-57;0;0;0;0;0
1587052496569;-29;-73;-44;51;8;-58;0;0;0;0;0
1587052496571;-19;-68;-49;43;15;-58;0;0;0;0;0
1587052496573;-11;-54;-43;32;16;-48;0;0;0;0;0
1587052496575;-9;-44;-35;26;13;-39;0;0;0;0;0
1587052496577;-16;-52;-36;34;10;-44;0;0;0;0;0
1587052496579;-37;-66;-29;51;-4;-47;0;0;0;0;0
1587052496581;-48;-67;-19;57;-14;-43;0;0;0;0;0
1587052496583;-44;-57;-13;50;-15;-35;0;0;0;0;0
1587052496585;-37;-52;-15;44;-11;-33;0;0;0;0;0
1587052496587;-36;-68;-32;52;-2;-50;0;0;0;0;0
1587052496589;-39;-85;-46;62;4;-65;0;0;0;0;0
1587052496591;-37;-73;-36;55;0;-54;0;0;0;0;0
1587052496593;-30;-43;-13;36;-8;-28;0;0;0;0;0
1587052496595;-31;-19;12;25;-21;-3;0;0;0;0;0
1587052496597;-36;-28;8;32;-22;-10;0;0;0;0;0
1587052496599;-41;-46;-5;43;-18;-25;0;0;0;0;0
1587052496601;-44;-44;0;44;-22;-22;0;0;0;0;0
1587052496603;-37;-53;-16;45;-10;-34;0;0;0;0;0
1587052496605;-31;-64;-33;47;1;-48;0;0;0;0;0
1587052496607;-36;-74;-38;55;1;-56;0;0;0;0;0
1587052496609;-43;-97;-54;70;6;-75;0;0;0;0;0
1587052496611;-37;-101;-64;69;14;-82;0;0;0;0;0
1587052496613;-27;-82;-55;54;14;-68;0;0;0;0;0
1587052496615;-28;-56;-28;42;0;-42;0;0;0;0;0
1587052496617;-35;-41;-6;38;-14;-23;0;0;0;0;0
1587052496619;-39;-58;-19;48;-10;-38;0;0;0;0;0
1587052496621;-39;-74;-35;56;-2;-54;0;0;0;0;0
1587052496623;-32;-65;-33;48;1;-49;0;0;0;0;0
1587052496625;-33;-63;-30;48;-1;-46;0;0;0;0;0
1587052496627;-37;-73;-36;55;0;-54;0;0;0;0;0
1587052496629;-40;-74;-34;57;-3;-54;0;0;0;0;0
1587052496631;-44;-76;-32;60;-6;-54;0;0;0;0;0
1587052496633;-47;-77;-30;62;-8;-53;0;0;0;0;0
1587052496635;-45;-67;-22;56;-11;-44;0;0;0;0;0
1587052496637;-40;-62;-22;51;-9;-42;0;0;0;0;0
1587052496639;-38;-76;-38;57;0;-57;0;0;0;0;0
1587052496641;-41;-102;-61;71;10;-81;0;0;0;0;0
1587052496643;-46;-116;-70;81;12;-93;0;0;0;0;0
1587052496645;-55;-105;-50;80;-2;-77;0;0;0;0;0
1587052496647;-65;-101;-36;83;-14;-68;0;0;0;0;0
1587052496649;-66;-117;-51;91;-7;-84;0;0;0;0;0
1587052496651;-66;-112;-46;89;-10;-79;0;0;0;0;0
1587052496653;-52;-67;-15;59;-18;-41;0;0;0;0;0
1587052496655;-24;-37;-13;30;-5;-25;0;0;0;0;0
1587052496657;-1;-31;-30;16;15;-30;0;0;0;0;0
1587052496659;32;-3;-35;-15;34;-19;0;0;0;0;0
1587052496661;78;52;-26;-65;52;13;0;0;0;0;0
1587052496663;133;131;-2;-132;68;65;0;0;0;0;0
1587052496665;188;223;35;-206;77;129;0;0;0;0;0
1587052496667;226;320;94;-273;66;207;0;0;0;0;0
1587052496669;243;404;161;-324;41;283;0;0;0;0;0
1587052496671;227;460;233;-344;-3;347;0;0;0;0;0
1587052496673;195;513;318;-354;-61;416;0;0;0;0;0
1587052496675;158;585;427;-372;-134;506;0;0;0;0;0
1587052496677;112;650;538;-381;-213;594;0;0;0;0;0
1587052496679;69;671;602;-370;-266;637;0;0;0;0;0
1587052496681;28;652;624;-340;-298;638;0;0;0;0;0
1587052496683;2;609;607;-306;-302;608;0;0;0;0;0
1587052496685;-30;515;545;-243;-287;530;0;0;0;0;0
1587052496687;-66;366;432;-150;-249;399;0;0;0;0;0
1587052496689;-76;241;317;-83;-196;279;0;0;0;0;0
1587052496691;-76;170;246;-47;-161;208;0;0;0;0;0
1587052496693;-80;109;189;-15;-134;149;0;0;0;0;0
1587052496695;-83;46;129;18;-106;88;0;0;0;0;0
1587052496697;-81;-3;78;42;-79;38;0;0;0;0;0
1587052496699;-82;-28;54;55;-68;13;0;0;0;0;0
1587052496701;-74;-36;38;55;-56;1;0;0;0;0;0
1587052496703;-69;-53;16;61;-42;-18;0;0;0;0;0
1587052496705;-72;-66;6;69;-39;-30;0;0;0;0;0
1587052496707;-71;-74;-3;72;-34;-38;0;0;0;0;0
1587052496709;-61;-67;-6;64;-27;-36;0;0;0;0;0
1587052496711;-52;-46;6;49;-29;-20;0;0;0;0;0
1587052496713;-51;-43;8;47;-29;-17;0;0;0;0;0
1587052496715;-44;-42;2;43;-23;-20;0;0;0;0;0
1587052496717;-36;-39;-3;37;-16;-21;0;0;0;0;0
1587052496719;-29;-27;2;28;-15;-12;0;0;0;0;0
1587052496721;-24;-12;12;18;-18;0;0;0;0;0;0
1587052496723;-26;-20;6;23;-16;-7;0;0;0;0;0
1587052496725;-30;-45;-15;37;-7;-30;0;0;0;0;0
1587052496727;-31;-69;-38;50;4;-53;0;0;0;0;0
1587052496729;-33;-70;-37;51;2;-53;0;0;0;0;0
1587052496731;-30;-61;-31;45;1;-46;0;0;0;0;0
1587052496733;-32;-63;-31;47;0;-47;0;0;0;0;0
1587052496735;-30;-62;-32;46;1;-47;0;0;0;0;0
1587052496737;-18;-52;-34;35;8;-43;0;0;0;0;0
1587052496739;-19;-45;-26;32;4;-35;0;0;0;0;0
1587052496741;-24;-38;-14;31;-5;-26;0;0;0;0;0
1587052496743;-24;-47;-23;35;0;-35;0;0;0;0;0
1587052496745;-23;-57;-34;40;6;-45;0;0;0;0;0
1587052496747;-23;-50;-27;36;2;-38;0;0;0;0;0
1587052496749;-23;-47;-24;35;1;-35;0;0;0;0;0
1587052496751;-24;-57;-33;40;5;-45;0;0;0;0;0
1587052496753;-24;-57;-33;40;5;-45;0;0;0;0;0
1587052496755;-17;-42;-25;29;4;-33;0;0;0;0;0
1587052496757;-10;-37;-27;23;9;-32;0;0;0;0;0
1587052496759;-4;-36;-32;20;14;-34;0;0;0;0;0
1587052496761;-4;-26;-22;15;9;-24;0;0;0;0;0
1587052496763;-7;-12;-5;9;-1;-8;0;0;0;0;0
1587052496765;-8;-10;-2;9;-3;-6;0;0;0;0;0
1587052496767;-15;-23;-8;19;-3;-15;0;0;0;0;0
1587052496769;-23;-35;-12;29;-5;-23;0;0;0;0;0
1587052496771;-20;-42;-22;31;1;-32;0;0;0;0;0
1587052496773;-20;-47;-27;33;4;-37;0;0;0;0;0
1587052496775;-23;-40;-17;31;-3;-28;0;0;0;0;0
1587052496777;-26;-36;-10;31;-8;-23;0;0;0;0;0
1587052496779;-28;-43;-15;35;-6;-29;0;0;0;0;0
1587052496781;-27;-39;-12;33;-7;-25;0;0;0;0;0
1587052496783;-25;-31;-6;28;-9;-18;0;0;0;0;0
1587052496785;-24;-29;-5;26;-9;-17;0;0;0;0;0
1587052496787;-20;-31;-11;25;-4;-21;0;0;0;0;0
1587052496789;-14;-43;-29;28;8;-36;0;0;0;0;0
1587052496791;-16;-54;-38;35;11;-46;0;0;0;0;0
1587052496793;-19;-50;-31;34;6;-40;0;0;0;0;0
1587052496795;-16;-42;-26;29;5;-34;0;0;0;0;0
1587052496797;-14;-44;-30;29;8;-37;0;0;0;0;0
1587052496799;-19;-51;-32;35;7;-41;0;0;0;0;0
1587052496801;-23;-48;-25;35;1;-36;0;0;0;0;0
1587052496803;-24;-37;-13;30;-5;-25;0;0;0;0;0
1587052496805;-14;-34;-20;24;3;-27;0;0;0;0;0
1587052496807;-11;-36;-25;23;7;-30;0;0;0;0;0
1587052496809;-14;-27;-13;20;0;-20;0;0;0;0;0
1587052496811;-13;-26;-13;19;0;-19;0;0;0;0;0
1587052496813;-21;-47;-26;34;3;-36;0;0;0;0;0
1587052496815;-24;-63;-39;43;8;-51;0;0;0;0;0
1587052496817;-16;-56;-40;36;12;-48;0;0;0;0;0
1587052496819;-11;-46;-35;28;12;-40;0;0;0;0;0
1587052496821;-15;-45;-30;30;8;-37;0;0;0;0;0
1587052496823;-14;-27;-13;20;0;-20;0;0;0;0;0
1587052496825;-8;-23;-15;15;4;-19;0;0;0;0;0
1587052496827;-3;-33;-30;18;14;-31;0;0;0;0;0
1587052496829;-3;-18;-15;10;6;-16;0;0;0;0;0
1587052496831;-5;5;10;0;-7;8;0;0;0;0;0
1587052496833;-11;10;21;0;-16;16;0;0;0;0;0
1587052496835;-12;3;15;4;-13;9;0;0;0;0;0
1587052496837;-1;13;14;-6;-7;14;0;0;0;0;0
1587052496839;4;24;20;-14;-8;22;0;0;0;0;0
1587052496841;-2;4;6;-1;-4;5;0;0;0;0;0
1587052496843;-3;-16;-13;9;5;-14;0;0;0;0;0
1587052496845;-4;-13;-9;8;3;-11;0;0;0;0;0
1587052496847;-12;-16;-4;14;-4;-10;0;0;0;0;0
1587052496849;-9;-26;-17;17;4;-21;0;0;0;0;0
1587052496851;-2;-28;-26;15;12;-27;0;0;0;0;0
1587052496853;-3;-29;-26;16;12;-27;0;0;0;0;0
1587052496855;-6;-27;-21;16;8;-24;0;0;0;0;0
1587052496857;-10;-24;-14;17;2;-19;0;0;0;0;0
1587052496859;-11;-16;-5;13;-3;-10;0;0;0;0;0
1587052496861;-2;-14;-12;8;5;-13;0;0;0;0;0
1587052496863;7;-18;-25;5;16;-21;0;0;0;0;0
1587052496865;7;-17;-24;5;16;-20;0;0;0;0;0
1587052496867;8;-9;-17;0;13;-13;0;0;0;0;0
1587052496869;14;-4;-18;-5;16;-11;0;0;0;0;0
1587052496871;12;-2;-14;-5;13;-8;0;0;0;0;0
1587052496873;15;13;-2;-14;9;6;0;0;0;0;0
1587052496875;16;20;4;-18;6;12;0;0;0;0;0
1587052496877;12;22;10;-17;1;16;0;0;0;0;0
1587052496879;14;27;13;-21;1;20;0;0;0;0;0
1587052496881;11;11;0;-11;6;6;0;0;0;0;0
1587052496883;11;-8;-19;-2;15;-13;0;0;0;0;0
1587052496885;16;-8;-24;-4;20;-16;0;0;0;0;0
1587052496887;17;2;-15;-10;16;-6;0;0;0;0;0
1587052496889;20;11;-9;-16;15;1;0;0;0;0;0
1587052496891;20;34;14;-27;3;24;0;0;0;0;0
1587052496893;22;42;20;-32;1;31;0;0;0;0;0
1587052496895;22;16;-6;-19;14;5;0;0;0;0;0
1587052496897;22;0;-22;-11;22;-11;0;0;0;0;0
1587052496899;38;17;-21;-28;30;-2;0;0;0;0;0
1587052496901;42;32;-10;-37;26;11;0;0;0;0;0
1587052496903;31;42;11;-37;10;27;0;0;0;0;0
1587052496905;34;53;19;-44;8;36;0;0;0;0;0
1587052496907;48;49;1;-49;24;25;0;0;0;0;0
1587052496909;58;50;-8;-54;33;21;0;0;0;0;0
1587052496911;47;41;-6;-44;27;18;0;0;0;0;0
1587052496913;44;28;-16;-36;30;6;0;0;0;0;0
1587052496915;53;29;-24;-41;39;3;0;0;0;0;0
1587052496917;53;43;-10;-48;32;17;0;0;0;0;0
1587052496919;58;56;-2;-57;30;27;0;0;0;0;0
1587052496921;61;61;0;-61;31;31;0;0;0;0;0
1587052496923;59;64;5;-62;27;35;0;0;0;0;0
1587052496925;56;62;6;-59;25;34;0;0;0;0;0
1587052496927;54;64;10;-59;22;37;0;0;0;0;0
1587052496929;55;75;20;-65;18;48;0;0;0;0;0
1587052496931;53;84;31;-69;11;58;0;0;0;0;0
1587052496933;55;87;32;-71;12;60;0;0;0;0;0
1587052496935;64;84;20;-74;22;52;0;0;0;0;0
1587052496937;68;81;13;-75;28;47;0;0;0;0;0
1587052496939;65;77;12;-71;27;45;0;0;0;0;0
1587052496941;65;76;11;-71;27;44;0;0;0;0;0
1587052496943;72;87;15;-80;29;51;0;0;0;0;0
1587052496945;72;97;25;-85;24;61;0;0;0;0;0
1587052496947;67;114;47;-91;10;81;0;0;0;0;0
1587052496949;66;116;50;-91;8;83;0;0;0;0;0
1587052496951;66;102;36;-84;15;69;0;0;0;0;0
1587052496953;63;104;41;-84;11;73;0;0;0;0;0
1587052496955;60;104;44;-82;8;74;0;0;0;0;0
1587052496957;58;94;36;-76;11;65;0;0;0;0;0
1587052496959;56;97;41;-77;8;69;0;0;0;0;0
1587052496961;56;108;52;-82;2;80;0;0;0;0;0
1587052496963;59;106;47;-83;6;77;0;0;0;0;0
1587052496965;59;105;46;-82;7;76;0;0;0;0;0
1587052496967;54;99;45;-77;5;72;0;0;0;0;0
1587052496969;43;67;24;-55;10;46;0;0;0;0;0
1587052496971;37;47;10;-42;14;29;0;0;0;0;0
1587052496973;39;54;15;-47;12;35;0;0;0;0;0
1587052496975;37;57;20;-47;9;39;0;0;0;0;0
1587052496977;31;64;33;-48;-1;49;0;0;0;0;0
1587052496979;29;80;51;-55;-11;66;0;0;0;0;0
1587052496981;27;75;48;-51;-10;62;0;0;0;0;0
1587052496983;23;49;26;-36;-1;38;0;0;0;0;0
1587052496985;20;33;13;-27;4;23;0;0;0;0;0
1587052496987;11;46;35;-29;-12;41;0;0;0;0;0
1587052496989;10;64;54;-37;-22;59;0;0;0;0;0
1587052496991;8;43;35;-26;-13;39;0;0;0;0;0
1587052496993;9;10;1;-10;4;6;0;0;0;0;0
1587052496995;9;3;-6;-6;8;-1;0;0;0;0;0
1587052496997;-1;19;20;-9;-10;20;0;0;0;0;0
1587052496999;-2;19;21;-9;-11;20;0;0;0;0;0
1587052497001;3;3;0;-3;2;2;0;0;0;0;0
1587052497003;4;-3;-7;-1;6;-5;0;0;0;0;0
1587052497005;-11;-16;-5;13;-3;-10;0;0;0;0;0
1587052497007;-23;-25;-2;24;-10;-13;0;0;0;0;0
1587052497009;-23;-20;3;21;-13;-8;0;0;0;0;0
1587052497011;-20;-12;8;16;-14;-2;0;0;0;0;0
1587052497013;-13;-7;6;10;-9;0;0;0;0;0;0
1587052497015;-5;2;7;1;-6;5;0;0;0;0;0
1587052497017;-6;7;13;-1;-9;10;0;0;0;0;0
1587052497019;-7;-7;0;7;-3;-3;0;0;0;0;0
1587052497021;-8;-18;-10;13;1;-14;0;0;0;0;0
1587052497023;-16;-14;2;15;-9;-6;0;0;0;0;0
1587052497025;-21;-13;8;17;-14;-2;0;0;0;0;0
1587052497027;-21;-10;11;15;-16;1;0;0;0;0;0
1587052497029;-22;-6;16;14;-19;5;0;0;0;0;0
1587052497031;-26;-17;9;21;-17;-4;0;0;0;0;0
1587052497033;-30;-24;6;27;-18;-9;0;0;0;0;0
1587052497035;-27;-7;20;17;-23;7;0;0;0;0;0
1587052497037;-21;2;23;9;-22;13;0;0;0;0;0
1587052497039;-24;-8;16;16;-20;4;0;0;0;0;0
1587052497041;-31;-25;6;28;-18;-9;0;0;0;0;0
1587052497043;-33;-46;-13;39;-10;-29;0;0;0;0;0
1587052497045;-33;-33;0;33;-16;-16;0;0;0;0;0
1587052497047;-34;-5;29;19;-31;12;0;0;0;0;0
1587052497049;-37;-9;28;23;-32;10;0;0;0;0;0
1587052497051;-39;-25;14;32;-26;-5;0;0;0;0;0
1587052497053;-35;-22;13;28;-24;-4;0;0;0;0;0
1587052497055;-29;-26;3;27;-16;-11;0;0;0;0;0
1587052497057;-26;-26;0;26;-13;-13;0;0;0;0;0
1587052497059;-28;-10;18;19;-23;4;0;0;0;0;0
1587052497061;-31;-6;25;18;-28;10;0;0;0;0;0
1587052497063;-31;-3;28;17;-29;13;0;0;0;0;0
1587052497065;-29;1;30;14;-29;16;0;0;0;0;0
1587052497067;-23;-7;16;15;-19;5;0;0;0;0;0
1587052497069;-23;-21;2;22;-12;-9;0;0;0;0;0
1587052497071;-31;-28;3;29;-17;-12;0;0;0;0;0
1587052497073;-40;-28;12;34;-26;-8;0;0;0;0;0
1587052497075;-38;-29;9;33;-23;-10;0;0;0;0;0
1587052497077;-34;-32;2;33;-18;-15;0;0;0;0;0
1587052497079;-31;-25;6;28;-18;-9;0;0;0;0;0
1587052497081;-28;-15;13;21;-20;-1;0;0;0;0;0
1587052497083;-35;-16;19;25;-27;2;0;0;0;0;0
1587052497085;-37;-27;10;32;-23;-8;0;0;0;0;0
1587052497087;-43;-38;5;40;-24;-16;0;0;0;0;0
1587052497089;-48;-31;17;39;-32;-7;0;0;0;0;0
1587052497091;-26;-16;10;21;-18;-3;0;0;0;0;0
1587052497093;-12;-15;-3;13;-4;-9;0;0;0;0;0
1587052497095;-21;-19;2;20;-11;-8;0;0;0;0;0
1587052497097;-30;-19;11;24;-20;-4;0;0;0;0;0
1587052497099;-33;-22;11;27;-22;-5;0;0;0;0;0
1587052497101;-29;-20;9;24;-19;-5;0;0;0;0;0
1587052497103;-32;-10;22;21;-27;6;0;0;0;0;0
1587052497105;-36;-11;25;23;-30;7;0;0;0;0;0
1587052497107;-22;-24;-2;23;-10;-13;0;0;0;0;0
1587052497109;-10;-19;-9;14;0;-14;0;0;0;0;0
1587052497111;-16;-11;5;13;-10;-3;0;0;0;0;0
1587052497113;-30;-20;10;25;-20;-5;0;0;0;0;0
1587052497115;-32;-26;6;29;-19;-10;0;0;0;0;0
1587052497117;-32;-27;5;29;-18;-11;0;0;0;0;0
1587052497119;-33;-25;8;29;-20;-8;0;0;0;0;0
1587052497121;-27;-18;9;22;-18;-4;0;0;0;0;0
1587052497123;-25;-13;12;19;-18;0;0;0;0;0;0
1587052497125;-30;-21;9;25;-19;-6;0;0;0;0;0
1587052497127;-31;-26;5;28;-18;-10;0;0;0;0;0
1587052497129;-27;-18;9;22;-18;-4;0;0;0;0;0
1587052497131;-28;-21;7;24;-17;-7;0;0;0;0;0
1587052497133;-29;-24;5;26;-17;-9;0;0;0;0;0
1587052497135;-32;-18;14;25;-23;-2;0;0;0;0;0
1587052497137;-35;-15;20;25;-27;3;0;0;0;0;0
1587052497139;-32;-13;19;22;-25;3;0;0;0;0;0
1587052497141;-27;-13;14;20;-20;1;0;0;0;0;0
1587052497143;-24;-20;4;22;-14;-8;0;0;0;0;0
1587052497145;-25;-18;7;21;-16;-5;0;0;0;0;0
1587052497147;-26;-8;18;17;-22;5;0;0;0;0;0
1587052497149;-28;-15;13;21;-20;-1;0;0;0;0;0
1587052497151;-23;-25;-2;24;-10;-13;0;0;0;0;0
1587052497153;-16;-27;-11;21;-2;-19;0;0;0;0;0
1587052497155;-24;-27;-3;25;-10;-15;0;0;0;0;0
1587052497157;-35;-27;8;31;-21;-9;0;0;0;0;0
1587052497159;-40;-35;5;37;-22;-15;0;0;0;0;0
1587052497161;-31;-40;-9;35;-11;-24;0;0;0;0;0
1587052497163;-25;-29;-4;27;-10;-16;0;0;0;0;0
1587052497165;-31;-20;11;25;-21;-4;0;0;0;0;0
1587052497167;-31;-18;13;24;-22;-2;0;0;0;0;0
1587052497169;-29;-20;9;24;-19;-5;0;0;0;0;0
1587052497171;-30;-32;-2;31;-14;-17;0;0;0;0;0
1587052497173;-24;-38;-14;31;-5;-26;0;0;0;0;0
1587052497175;-17;-28;-11;22;-3;-19;0;0;0;0;0
1587052497177;-17;-4;13;10;-15;5;0;0;0;0;0
1587052497179;-16;13;29;1;-22;21;0;0;0;0;0
1587052497181;-13;2;15;5;-14;9;0;0;0;0;0
1587052497183;-15;-11;4;13;-9;-3;0;0;0;0;0
1587052497185;-16;-13;3;14;-9;-5;0;0;0;0;0
1587052497187;-24;-21;3;22;-13;-9;0;0;0;0;0
1587052497189;-45;-23;22;34;-33;0;0;0;0;0;0
1587052497191;-51;-20;31;35;-41;6;0;0;0;0;0
1587052497193;-42;-22;20;32;-31;-1;0;0;0;0;0
1587052497195;-24;-22;2;23;-13;-10;0;0;0;0;0
1587052497197;-3;-24;-21;13;9;-22;0;0;0;0;0
1587052497199;0;-26;-26;13;13;-26;0;0;0;0;0
1587052497201;-13;-17;-4;15;-4;-10;0;0;0;0;0
1587052497203;-41;-17;24;29;-32;4;0;0;0;0;0
1587052497205;-58;-39;19;48;-38;-10;0;0;0;0;0
1587052497207;-43;-53;-10;48;-16;-31;0;0;0;0;0
1587052497209;-36;-51;-15;43;-10;-33;0;0;0;0;0
1587052497211;-46;-43;3;44;-24;-20;0;0;0;0;0
1587052497213;-31;-43;-12;37;-9;-27;0;0;0;0;0
1587052497215;-16;-40;-24;28;4;-32;0;0;0;0;0
1587052497217;-18;-38;-20;28;1;-29;0;0;0;0;0
1587052497219;-11;-49;-38;30;14;-43;0;0;0;0;0
1587052497221;-12;-51;-39;31;14;-45;0;0;0;0;0
1587052497223;-33;-38;-5;35;-14;-21;0;0;0;0;0
1587052497225;-45;-32;13;38;-29;-9;0;0;0;0;0
1587052497227;-31;-38;-7;34;-12;-22;0;0;0;0;0
1587052497229;-14;-41;-27;27;7;-34;0;0;0;0;0
1587052497231;-5;-35;-30;20;13;-32;0;0;0;0;0
1587052497233;-3;-25;-22;14;10;-23;0;0;0;0;0
1587052497235;-19;-16;3;17;-11;-6;0;0;0;0;0
1587052497237;-36;-24;12;30;-24;-6;0;0;0;0;0
1587052497239;-24;-40;-16;32;-4;-28;0;0;0;0;0
1587052497241;0;-48;-48;24;24;-48;0;0;0;0;0
1587052497243;4;-51;-55;23;30;-53;0;0;0;0;0
1587052497245;6;-43;-49;18;28;-46;0;0;0;0;0
1587052497247;9;-32;-41;11;25;-36;0;0;0;0;0
1587052497249;-1;-41;-40;21;20;-40;0;0;0;0;0
1587052497251;9;-53;-62;22;36;-57;0;0;0;0;0
1587052497253;26;-40;-66;7;46;-53;0;0;0;0;0
1587052497255;13;-30;-43;8;28;-36;0;0;0;0;0
1587052497257;-25;-38;-13;31;-6;-25;0;0;0;0;0
1587052497259;-69;-39;30;54;-49;-4;0;0;0;0;0
1587052497261;-76;-41;35;58;-55;-3;0;0;0;0;0
1587052497263;-48;-56;-8;52;-20;-32;0;0;0;0;0
1587052497265;-23;-51;-28;37;3;-39;0;0;0;0;0
1587052497267;-8;-30;-22;19;7;-26;0;0;0;0;0
1587052497269;-22;-37;-15;29;-3;-26;0;0;0;0;0
1587052497271;-42;-42;0;42;-21;-21;0;0;0;0;0
1587052497273;-20;-35;-15;27;-2;-25;0;0;0;0;0
1587052497275;16;-31;-47;7;32;-39;0;0;0;0;0
1587052497277;42;-32;-74;-5;58;-53;0;0;0;0;0
1587052497279;28;-40;-68;6;48;-54;0;0;0;0;0
1587052497281;-24;-49;-25;36;1;-37;0;0;0;0;0
1587052497283;-45;-49;-4;47;-20;-26;0;0;0;0;0
1587052497285;-76;-44;32;60;-54;-6;0;0;0;0;0
1587052497287;-121;-46;75;83;-98;15;0;0;0;0;0
1587052497289;-118;-47;71;82;-94;12;0;0;0;0;0
1587052497291;-60;-43;17;51;-38;-13;0;0;0;0;0
1587052497293;22;-40;-62;9;42;-51;0;0;0;0;0
1587052497295;80;-41;-121;-20;101;-81;0;0;0;0;0
1587052497297;57;-40;-97;-9;77;-68;0;0;0;0;0
1587052497299;-12;-29;-17;20;3;-23;0;0;0;0;0
1587052497301;-64;-30;34;47;-49;2;0;0;0;0;0
1587052497303;-80;-43;37;61;-58;-3;0;0;0;0;0
1587052497305;-54;-46;8;50;-31;-19;0;0;0;0;0
1587052497307;-36;-21;15;28;-25;-3;0;0;0;0;0
1587052497309;-40;-3;37;21;-38;17;0;0;0;0;0
1587052497311;-54;-20;34;37;-44;7;0;0;0;0;0
1587052497313;-64;-41;23;52;-43;-9;0;0;0;0;0
1587052497315;-67;-58;9;62;-38;-24;0;0;0;0;0
1587052497317;-65;-54;11;59;-38;-21;0;0;0;0;0
1587052497319;-71;-45;26;58;-48;-9;0;0;0;0;0
1587052497321;-84;-43;41;63;-62;-1;0;0;0;0;0
1587052497323;-85;-33;52;59;-68;10;0;0;0;0;0
1587052497325;-73;-30;43;51;-58;7;0;0;0;0;0
1587052497327;-62;-34;28;48;-45;-3;0;0;0;0;0
1587052497329;-67;-41;26;54;-46;-7;0;0;0;0;0
1587052497331;-76;-57;19;66;-47;-19;0;0;0;0;0
1587052497333;-55;-67;-12;61;-21;-39;0;0;0;0;0
1587052497335;-49;-56;-7;52;-21;-31;0;0;0;0;0
1587052497337;-90;-37;53;63;-71;8;0;0;0;0;0
1587052497339;-99;-27;72;63;-85;23;0;0;0;0;0
1587052497341;-66;-40;26;53;-46;-7;0;0;0;0;0
1587052497343;-41;-49;-8;45;-16;-28;0;0;0;0;0
1587052497345;-31;-35;-4;33;-13;-19;0;0;0;0;0
1587052497347;-35;-15;20;25;-27;3;0;0;0;0;0
1587052497349;-61;-6;55;33;-58;25;0;0;0;0;0
1587052497351;-93;-19;74;56;-83;28;0;0;0;0;0
1587052497353;-94;-40;54;67;-74;7;0;0;0;0;0
1587052497355;-76;-59;17;67;-46;-21;0;0;0;0;0
1587052497357;-66;-70;-4;68;-31;-37;0;0;0;0;0
1587052497359;-48;-58;-10;53;-19;-34;0;0;0;0;0
1587052497361;-58;-56;2;57;-30;-27;0;0;0;0;0
1587052497363;-66;-50;16;58;-41;-17;0;0;0;0;0
1587052497365;-35;-27;8;31;-21;-9;0;0;0;0;0
1587052497367;-20;-16;4;18;-12;-6;0;0;0;0;0
1587052497369;-35;-20;15;27;-25;-2;0;0;0;0;0
1587052497371;-36;-26;10;31;-23;-8;0;0;0;0;0
1587052497373;-27;-15;12;21;-19;-1;0;0;0;0;0
1587052497375;-46;-15;31;30;-38;8;0;0;0;0;0
1587052497377;-74;-29;45;51;-59;8;0;0;0;0;0
1587052497379;-83;-28;55;55;-69;14;0;0;0;0;0
1587052497381;-56;-19;37;37;-46;9;0;0;0;0;0
1587052497383;-16;-18;-2;17;-7;-10;0;0;0;0;0
1587052497385;-10;-17;-7;13;-1;-12;0;0;0;0;0
1587052497387;-31;-17;14;24;-22;-1;0;0;0;0;0
1587052497389;-49;-21;28;35;-38;4;0;0;0;0;0
1587052497391;-57;-27;30;42;-43;2;0;0;0;0;0
1587052497393;-51;-15;36;33;-43;11;0;0;0;0;0
1587052497395;-28;10;38;9;-33;24;0;0;0;0;0
1587052497397;-27;12;39;7;-33;26;0;0;0;0;0
1587052497399;-55;11;66;22;-60;39;0;0;0;0;0
1587052497401;-70;11;81;29;-75;46;0;0;0;0;0
1587052497403;-60;5;65;27;-62;35;0;0;0;0;0
1587052497405;-36;7;43;14;-39;25;0;0;0;0;0
1587052497407;-26;15;41;5;-33;28;0;0;0;0;0
1587052497409;-27;24;51;1;-39;38;0;0;0;0;0
1587052497411;-19;26;45;-4;-32;36;0;0;0;0;0
1587052497413;-15;37;52;-11;-33;45;0;0;0;0;0
1587052497415;-23;45;68;-11;-45;57;0;0;0;0;0
1587052497417;-26;40;66;-7;-46;53;0;0;0;0;0
1587052497419;-20;33;53;-7;-36;43;0;0;0;0;0
1587052497421;-9;41;50;-16;-29;46;0;0;0;0;0
1587052497423;11;39;28;-25;-8;34;0;0;0;0;0
1587052497425;27;13;-14;-20;21;0;0;0;0;0;0
1587052497427;28;1;-27;-15;28;-13;0;0;0;0;0
1587052497429;4;-1;-5;-2;5;-3;0;0;0;0;0
1587052497431;-3;-7;-4;5;1;-5;0;0;0;0;0
1587052497433;10;-8;-18;-1;14;-13;0;0;0;0;0
1587052497435;7;-4;-11;-2;9;-7;0;0;0;0;0
1587052497437;0;16;16;-8;-8;16;0;0;0;0;0
1587052497439;-3;24;27;-11;-15;26;0;0;0;0;0
1587052497441;-3;8;11;-3;-7;10;0;0;0;0;0
1587052497443;-1;0;1;0;-1;1;0;0;0;0;0
1587052497445;-8;-8;0;8;-4;-4;0;0;0;0;0
1587052497447;-29;-21;8;25;-18;-6;0;0;0;0;0
1587052497449;-45;-28;17;36;-31;-5;0;0;0;0;0
1587052497451;-49;-29;20;39;-34;-4;0;0;0;0;0
1587052497453;-36;-43;-7;39;-14;-25;0;0;0;0;0
1587052497455;-24;-55;-31;39;4;-43;0;0;0;0;0
1587052497457;-16;-38;-22;27;3;-30;0;0;0;0;0
1587052497459;-19;3;22;8;-20;13;0;0;0;0;0
1587052497461;-43;20;63;11;-53;42;0;0;0;0;0
1587052497463;-58;-1;57;29;-57;28;0;0;0;0;0
1587052497465;-46;-19;27;32;-36;4;0;0;0;0;0
1587052497467;-35;-40;-5;37;-15;-22;0;0;0;0;0
1587052497469;-41;-61;-20;51;-10;-40;0;0;0;0;0
1587052497471;-46;-79;-33;62;-6;-56;0;0;0;0;0
1587052497473;-53;-80;-27;66;-13;-53;0;0;0;0;0
1587052497475;-45;-62;-17;53;-14;-39;0;0;0;0;0
1587052497477;-25;-44;-19;34;-3;-31;0;0;0;0;0
1587052497479;-10;-24;-14;17;2;-19;0;0;0;0;0
1587052497481;-16;-25;-9;20;-3;-17;0;0;0;0;0
1587052497483;-26;-36;-10;31;-8;-23;0;0;0;0;0
1587052497485;-20;-47;-27;33;4;-37;0;0;0;0;0
1587052497487;-14;-47;-33;30;10;-40;0;0;0;0;0
1587052497489;-18;-33;-15;25;-1;-24;0;0;0;0;0
1587052497491;-17;-31;-14;24;-1;-22;0;0;0;0;0
1587052497493;-7;-43;-36;25;15;-39;0;0;0;0;0
1587052497495;-5;-42;-37;23;16;-39;0;0;0;0;0
1587052497497;-12;-28;-16;20;2;-22;0;0;0;0;0
1587052497499;-18;-46;-28;32;5;-37;0;0;0;0;0
1587052497501;-10;-74;-64;42;27;-69;0;0;0;0;0
1587052497503;-16;-72;-56;44;20;-64;0;0;0;0;0
1587052497505;-36;-55;-19;45;-8;-37;0;0;0;0;0
1587052497507;-31;-26;5;28;-18;-10;0;0;0;0;0
1587052497509;-24;9;33;7;-28;21;0;0;0;0;0
1587052497511;-31;-3;28;17;-29;13;0;0;0;0;0
1587052497513;-23;-38;-15;30;-4;-26;0;0;0;0;0
1587052497515;-19;-55;-36;37;9;-45;0;0;0;0;0
1587052497517;-27;-71;-44;49;9;-57;0;0;0;0;0
1587052497519;-17;-78;-61;47;22;-69;0;0;0;0;0
1587052497521;-7;-83;-76;45;35;-79;0;0;0;0;0
1587052497523;-30;-103;-73;66;22;-88;0;0;0;0;0
1587052497525;-47;-124;-77;85;15;-100;0;0;0;0;0
1587052497527;-48;-137;-89;92;21;-113;0;0;0;0;0
1587052497529;-64;-133;-69;98;3;-101;0;0;0;0;0
1587052497531;-67;-113;-46;90;-10;-79;0;0;0;0;0
1587052497533;-59;-96;-37;77;-11;-66;0;0;0;0;0
1587052497535;-31;-81;-50;56;10;-65;0;0;0;0;0
1587052497537;18;-67;-85;24;52;-76;0;0;0;0;0
1587052497539;46;-43;-89;-2;68;-66;0;0;0;0;0
1587052497541;88;3;-85;-46;87;-41;0;0;0;0;0
1587052497543;146;61;-85;-104;116;-12;0;0;0;0;0
1587052497545;157;117;-40;-137;99;39;0;0;0;0;0
1587052497547;154;186;32;-170;61;109;0;0;0;0;0
1587052497549;195;285;90;-240;53;188;0;0;0;0;0
1587052497551;244;390;146;-317;49;268;0;0;0;0;0
1587052497553;266;477;211;-372;28;344;0;0;0;0;0
1587052497555;243;551;308;-397;-32;430;0;0;0;0;0
1587052497557;189;614;425;-402;-118;520;0;0;0;0;0
1587052497559;147;663;516;-405;-184;590;0;0;0;0;0
1587052497561;117;700;583;-409;-233;642;0;0;0;0;0
1587052497563;78;699;621;-389;-271;660;0;0;0;0;0
1587052497565;37;634;597;-336;-280;616;0;0;0;0;0
1587052497567;-1;537;538;-268;-269;538;0;0;0;0;0
1587052497569;-42;417;459;-188;-250;438;0;0;0;0;0
1587052497571;-58;291;349;-117;-203;320;0;0;0;0;0
1587052497573;-49;210;259;-81;-154;235;0;0;0;0;0
1587052497575;-33;160;193;-64;-113;177;0;0;0;0;0
1587052497577;-34;108;142;-37;-88;125;0;0;0;0;0
1587052497579;-53;47;100;3;-76;74;0;0;0;0;0
1587052497581;-59;0;59;29;-59;30;0;0;0;0;0
1587052497583;-62;-18;44;40;-53;13;0;0;0;0;0
1587052497585;-65;-6;59;35;-62;27;0;0;0;0;0
1587052497587;-61;0;61;30;-61;31;0;0;0;0;0
1587052497589;-60;-39;21;49;-40;-9;0;0;0;0;0
1587052497591;-77;-80;-3;78;-37;-41;0;0;0;0;0
1587052497593;-77;-72;5;74;-41;-33;0;0;0;0;0
1587052497595;-47;-54;-7;50;-20;-30;0;0;0;0;0
1587052497597;-20;-46;-26;33;3;-36;0;0;0;0;0
1587052497599;-11;-40;-29;25;9;-34;0;0;0;0;0
1587052497601;-11;-36;-25;23;7;-30;0;0;0;0;0
1587052497603;-7;-34;-27;20;10;-30;0;0;0;0;0
1587052497605;-3;-35;-32;19;15;-33;0;0;0;0;0
1587052497607;2;-39;-41;18;22;-40;0;0;0;0;0
1587052497609;-9;-55;-46;32;19;-50;0;0;0;0;0
1587052497611;-26;-59;-33;42;4;-46;0;0;0;0;0
1587052497613;-23;-35;-12;29;-5;-23;0;0;0;0;0
1587052497615;6;-1;-7;-3;7;-4;0;0;0;0;0
1587052497617;10;-2;-12;-4;11;-7;0;0;0;0;0
1587052497619;-22;-35;-13;28;-4;-24;0;0;0;0;0
1587052497621;-38;-67;-29;52;-4;-48;0;0;0;0;0
1587052497623;-23;-80;-57;51;17;-68;0;0;0;0;0
1587052497625;-7;-71;-64;39;29;-67;0;0;0;0;0
1587052497627;-4;-58;-54;31;25;-56;0;0;0;0;0
1587052497629;-11;-46;-35;28;12;-40;0;0;0;0;0
1587052497631;-20;-37;-17;28;-1;-27;0;0;0;0;0
1587052497633;-18;-37;-19;27;1;-28;0;0;0;0;0
1587052497635;-12;-53;-41;32;15;-47;0;0;0;0;0
1587052497637;3;-59;-62;28;33;-60;0;0;0;0;0
1587052497639;6;-50;-56;22;31;-53;0;0;0;0;0
1587052497641;-10;-44;-34;27;12;-39;0;0;0;0;0
1587052497643;-24;-43;-19;33;-2;-31;0;0;0;0;0
1587052497645;-9;-46;-37;27;14;-41;0;0;0;0;0
1587052497647;17;-48;-65;15;41;-56;0;0;0;0;0
1587052497649;1;-43;-44;21;23;-43;0;0;0;0;0
1587052497651;-22;-38;-16;30;-3;-27;0;0;0;0;0
1587052497653;-28;-50;-22;39;-3;-36;0;0;0;0;0
1587052497655;-34;-60;-26;47;-4;-43;0;0;0;0;0
1587052497657;-33;-55;-22;44;-5;-38;0;0;0;0;0
1587052497659;-31;-51;-20;41;-5;-35;0;0;0;0;0
1587052497661;-17;-41;-24;29;4;-32;0;0;0;0;0
1587052497663;3;-34;-37;15;20;-35;0;0;0;0;0
1587052497665;4;-28;-32;12;18;-30;0;0;0;0;0
1587052497667;2;-27;-29;12;16;-28;0;0;0;0;0
1587052497669;7;-30;-37;11;22;-33;0;0;0;0;0
1587052497671;8;-36;-44;14;26;-40;0;0;0;0;0
1587052497673;14;-56;-70;21;42;-63;0;0;0;0;0
1587052497675;7;-69;-76;31;42;-72;0;0;0;0;0
1587052497677;-5;-57;-52;31;24;-54;0;0;0;0;0
1587052497679;15;-44;-59;14;37;-51;0;0;0;0;0
1587052497681;28;-26;-54;-1;41;-40;0;0;0;0;0
1587052497683;9;-12;-21;1;15;-16;0;0;0;0;0
1587052497685;-6;-26;-20;16;7;-23;0;0;0;0;0
1587052497687;-19;-20;-1;19;-9;-10;0;0;0;0;0
1587052497689;-41;-14;27;27;-34;7;0;0;0;0;0
1587052497691;-35;-28;7;31;-21;-10;0;0;0;0;0
1587052497693;-15;-34;-19;24;2;-26;0;0;0;0;0
1587052497695;-19;-38;-19;28;0;-28;0;0;0;0;0
1587052497697;-23;-41;-18;32;-2;-29;0;0;0;0;0
1587052497699;-11;-35;-24;23;7;-29;0;0;0;0;0
1587052497701;-7;-29;-22;18;8;-25;0;0;0;0;0
1587052497703;1;-30;-31;14;16;-30;0;0;0;0;0
1587052497705;16;-31;-47;7;32;-39;0;0;0;0;0
1587052497707;7;-33;-40;13;24;-36;0;0;0;0;0
1587052497709;-7;-29;-22;18;8;-25;0;0;0;0;0
1587052497711;-8;-12;-4;10;-2;-8;0;0;0;0;0
1587052497713;6;-5;-11;-1;9;-8;0;0;0;0;0
1587052497715;12;-15;-27;1;20;-21;0;0;0;0;0
1587052497717;8;-24;-32;8;20;-28;0;0;0;0;0
1587052497719;10;-23;-33;6;22;-28;0;0;0;0;0
1587052497721;2;-29;-31;13;17;-30;0;0;0;0;0
1587052497723;-6;-60;-54;33;24;-57;0;0;0;0;0
1587052497725;25;-67;-92;21;59;-79;0;0;0;0;0
1587052497727;41;-34;-75;-4;58;-54;0;0;0;0;0
1587052497729;10;-8;-18;-1;14;-13;0;0;0;0;0
1587052497731;17;-11;-28;-3;23;-19;0;0;0;0;0
1587052497733;36;-9;-45;-14;41;-27;0;0;0;0;0
1587052497735;-8;-11;-3;9;-2;-7;0;0;0;0;0
1587052497737;-36;-27;9;31;-22;-9;0;0;0;0;0
1587052497739;-14;-17;-3;15;-5;-10;0;0;0;0;0
1587052497741;-10;-3;7;6;-8;2;0;0;0;0;0
1587052497743;-18;-7;11;12;-14;2;0;0;0;0;0
1587052497745;-5;-14;-9;9;2;-11;0;0;0;0;0
1587052497747;11;-16;-27;2;19;-21;0;0;0;0;0
1587052497749;1;-13;-14;6;8;-13;0;0;0;0;0
1587052497751;-7;-14;-7;10;0;-10;0;0;0;0;0
1587052497753;-8;-21;-13;14;3;-17;0;0;0;0;0
1587052497755;3;-13;-16;5;10;-14;0;0;0;0;0
1587052497757;20;6;-14;-13;17;-4;0;0;0;0;0
1587052497759;8;17;9;-13;0;13;0;0;0;0;0
1587052497761;-17;9;26;4;-21;18;0;0;0;0;0
1587052497763;-19;-3;16;11;-17;7;0;0;0;0;0
1587052497765;-13;11;24;1;-18;18;0;0;0;0;0
1587052497767;4;21;17;-13;-6;19;0;0;0;0;0
1587052497769;40;16;-24;-28;32;-4;0;0;0;0;0
1587052497771;58;16;-42;-37;50;-13;0;0;0;0;0
1587052497773;51;17;-34;-34;43;-8;0;0;0;0;0
1587052497775;26;21;-5;-24;16;8;0;0;0;0;0
1587052497777;5;21;16;-13;-5;19;0;0;0;0;0
1587052497779;1;19;18;-10;-8;19;0;0;0;0;0
1587052497781;22;20;-2;-21;12;9;0;0;0;0;0
1587052497783;29;20;-9;-25;19;6;0;0;0;0;0
1587052497785;34;27;-7;-31;21;10;0;0;0;0;0
1587052497787;61;38;-23;-50;42;8;0;0;0;0;0
1587052497789;53;34;-19;-44;36;8;0;0;0;0;0
1587052497791;36;25;-11;-31;24;7;0;0;0;0;0
1587052497793;27;40;13;-34;7;27;0;0;0;0;0
1587052497795;20;61;41;-41;-10;51;0;0;0;0;0
1587052497797;44;71;27;-58;9;49;0;0;0;0;0
1587052497799;53;74;21;-64;16;48;0;0;0;0;0
1587052497801;35;80;45;-58;-5;63;0;0;0;0;0
1587052497803;35;73;38;-54;-1;56;0;0;0;0;0
1587052497805;60;52;-8;-56;34;22;0;0;0;0;0
1587052497807;92;46;-46;-69;69;0;0;0;0;0;0
1587052497809;99;68;-31;-84;65;19;0;0;0;0;0
1587052497811;55;88;33;-72;11;61;0;0;0;0;0
1587052497813;-4;75;79;-36;-41;77;0;0;0;0;0
1587052497815;-13;60;73;-24;-43;67;0;0;0;0;0
1587052497817;14;67;53;-41;-19;60;0;0;0;0;0
1587052497819;50;89;39;-70;6;64;0;0;0;0;0
1587052497821;80;102;22;-91;29;62;0;0;0;0;0
1587052497823;93;108;15;-101;39;62;0;0;0;0;0
1587052497825;74;101;27;-88;24;64;0;0;0;0;0
1587052497827;45;89;44;-67;1;67;0;0;0;0;0
1587052497829;25;91;66;-58;-20;79;0;0;0;0;0
1587052497831;-2;91;93;-45;-47;92;0;0;0;0;0
1587052497833;-6;94;100;-44;-53;97;0;0;0;0;0
1587052497835;12;100;88;-56;-38;94;0;0;0;0;0
1587052497837;33;95;62;-64;-14;79;0;0;0;0;0
1587052497839;53;101;48;-77;3;75;0;0;0;0;0
1587052497841;48;105;57;-77;-4;81;0;0;0;0;0
1587052497843;36;92;56;-64;-10;74;0;0;0;0;0
1587052497845;42;98;56;-70;-7;77;0;0;0;0;0
1587052497847;36;100;64;-68;-14;82;0;0;0;0;0
1587052497849;17;84;67;-51;-25;76;0;0;0;0;0
1587052497851;0;79;79;-40;-39;79;0;0;0;0;0
1587052497853;0;80;80;-40;-40;80;0;0;0;0;0
1587052497855;18;77;59;-48;-20;68;0;0;0;0;0
1587052497857;9;70;61;-40;-26;66;0;0;0;0;0
1587052497859;-3;71;74;-34;-38;73;0;0;0;0;0
1587052497861;3;76;73;-40;-35;75;0;0;0;0;0
1587052497863;0;76;76;-38;-38;76;0;0;0;0;0
1587052497865;1;65;64;-33;-31;65;0;0;0;0;0
1587052497867;8;45;37;-27;-14;41;0;0;0;0;0
1587052497869;13;37;24;-25;-5;31;0;0;0;0;0
1587052497871;13;37;24;-25;-5;31;0;0;0;0;0
1587052497873;17;38;21;-28;-2;30;0;0;0;0;0
1587052497875;17;47;30;-32;-6;39;0;0;0;0;0
1587052497877;-20;49;69;-15;-44;59;0;0;0;0;0
1587052497879;-49;37;86;6;-67;62;0;0;0;0;0
1587052497881;-31;23;54;4;-42;39;0;0;0;0;0
1587052497883;-42;5;47;18;-44;26;0;0;0;0;0
1587052497885;-54;-3;51;28;-52;24;0;0;0;0;0
1587052497887;-36;1;37;17;-36;19;0;0;0;0;0
1587052497889;-32;4;36;14;-34;20;0;0;0;0;0
1587052497891;-29;7;36;11;-32;22;0;0;0;0;0
1587052497893;-35;16;51;9;-43;34;0;0;0;0;0
1587052497895;-40;20;60;10;-50;40;0;0;0;0;0
1587052497897;-52;6;58;23;-55;32;0;0;0;0;0
1587052497899;-68;-10;58;39;-63;24;0;0;0;0;0
1587052497901;-53;-16;37;34;-45;11;0;0;0;0;0
1587052497903;-37;-17;20;27;-28;2;0;0;0;0;0
1587052497905;-35;-3;32;19;-33;15;0;0;0;0;0
1587052497907;-20;16;36;2;-28;26;0;0;0;0;0
1587052497909;-20;12;32;4;-26;22;0;0;0;0;0
1587052497911;-45;-1;44;23;-44;22;0;0;0;0;0
1587052497913;-69;-8;61;38;-65;27;0;0;0;0;0
1587052497915;-83;-19;64;51;-73;23;0;0;0;0;0
1587052497917;-62;-12;50;37;-56;19;0;0;0;0;0
1587052497919;-31;-4;27;17;-29;12;0;0;0;0;0
1587052497921;-25;-11;14;18;-19;2;0;0;0;0;0
1587052497923;-45;-16;29;30;-37;7;0;0;0;0;0
1587052497925;-56;-15;41;35;-48;13;0;0;0;0;0
1587052497927;-48;-8;40;28;-44;16;0;0;0;0;0
1587052497929;-46;-10;36;28;-41;13;0;0;0;0;0
1587052497931;-68;-22;46;45;-57;12;0;0;0;0;0
1587052497933;-86;-25;61;55;-73;18;0;0;0;0;0
1587052497935;-81;-23;58;52;-69;18;0;0;0;0;0
1587052497937;-70;-12;58;41;-64;23;0;0;0;0;0
1587052497939;-50;-13;37;31;-43;12;0;0;0;0;0
1587052497941;-37;-29;8;33;-22;-10;0;0;0;0;0
1587052497943;-69;-27;42;48;-55;8;0;0;0;0;0
1587052497945;-78;-19;59;48;-68;20;0;0;0;0;0
1587052497947;-45;-22;23;33;-34;1;0;0;0;0;0
1587052497949;-49;-16;33;32;-41;9;0;0;0;0;0
1587052497951;-51;-15;36;33;-43;11;0;0;0;0;0
1587052497953;-54;-21;33;37;-43;6;0;0;0;0;0
1587052497955;-72;-21;51;46;-61;15;0;0;0;0;0
1587052497957;-81;-19;62;50;-71;22;0;0;0;0;0
1587052497959;-91;-13;78;52;-84;33;0;0;0;0;0
1587052497961;-95;-5;90;50;-92;43;0;0;0;0;0
1587052497963;-80;-6;74;43;-77;34;0;0;0;0;0
1587052497965;-55;-7;48;31;-51;21;0;0;0;0;0
1587052497967;-49;-8;41;28;-45;17;0;0;0;0;0
1587052497969;-46;-7;39;26;-42;16;0;0;0;0;0
1587052497971;-38;-2;36;20;-37;17;0;0;0;0;0
1587052497973;-54;-1;53;27;-53;26;0;0;0;0;0
1587052497975;-90;-6;84;48;-87;39;0;0;0;0;0
1587052497977;-107;-8;99;57;-103;46;0;0;0;0;0
1587052497979;-95;-1;94;48;-94;47;0;0;0;0;0
1587052497981;-71;-2;69;36;-70;34;0;0;0;0;0
1587052497983;-72;-7;65;39;-68;29;0;0;0;0;0
1587052497985;-85;2;87;41;-86;45;0;0;0;0;0
1587052497987;-80;8;88;36;-84;48;0;0;0;0;0
1587052497989;-83;-8;75;45;-79;34;0;0;0;0;0
1587052497991;-92;-36;56;64;-74;10;0;0;0;0;0
1587052497993;-77;-45;32;61;-54;-6;0;0;0;0;0
1587052497995;-55;-35;20;45;-37;-7;0;0;0;0;0
1587052497997;-58;-33;25;45;-41;-4;0;0;0;0;0
1587052497999;-70;-23;47;46;-58;12;0;0;0;0;0
1587052498001;-83;-7;76;45;-79;35;0;0;0;0;0
1587052498003;-109;-3;106;56;-107;52;0;0;0;0;0
1587052498005;-109;-8;101;58;-105;47;0;0;0;0;0
1587052498007;-97;-20;77;58;-87;29;0;0;0;0;0
1587052498009;-114;-24;90;69;-102;33;0;0;0;0;0
1587052498011;-129;-24;105;76;-117;41;0;0;0;0;0
1587052498013;-119;-16;103;67;-111;44;0;0;0;0;0
1587052498015;-112;-9;103;60;-107;47;0;0;0;0;0
1587052498017;-108;-11;97;59;-102;43;0;0;0;0;0
1587052498019;-102;-20;82;61;-92;31;0;0;0;0;0
1587052498021;-90;-21;69;55;-79;24;0;0;0;0;0
1587052498023;-77;-15;62;46;-69;24;0;0;0;0;0
1587052498025;-77;-6;71;41;-74;33;0;0;0;0;0
1587052498027;-81;-4;77;42;-79;37;0;0;0;0;0
1587052498029;-111;-13;98;62;-104;43;0;0;0;0;0
1587052498031;-129;-18;111;73;-120;47;0;0;0;0;0
1587052498033;-116;-28;88;72;-102;30;0;0;0;0;0
1587052498035;-113;-38;75;75;-94;19;0;0;0;0;0
1587052498037;-103;-24;79;63;-91;28;0;0;0;0;0
1587052498039;-74;-14;60;44;-67;23;0;0;0;0;0
1587052498041;-74;-26;48;50;-61;11;0;0;0;0;0
1587052498043;-98;-25;73;61;-85;24;0;0;0;0;0
1587052498045;-91;-17;74;54;-82;29;0;0;0;0;0
1587052498047;-68;-14;54;41;-61;20;0;0;0;0;0
1587052498049;-87;-12;75;49;-81;32;0;0;0;0;0
1587052498051;-132;-27;105;79;-118;39;0;0;0;0;0
1587052498053;-147;-46;101;96;-124;28;0;0;0;0;0
1587052498055;-133;-28;105;80;-119;39;0;0;0;0;0
1587052498057;-134;4;138;65;-136;71;0;0;0;0;0
1587052498059;-136;2;138;67;-137;70;0;0;0;0;0
1587052498061;-114;-4;110;59;-112;53;0;0;0;0;0
1587052498063;-88;-17;71;52;-79;27;0;0;0;0;0
1587052498065;-72;-29;43;50;-57;7;0;0;0;0;0
1587052498067;-78;-36;42;57;-60;3;0;0;0;0;0
1587052498069;-99;-49;50;74;-74;1;0;0;0;0;0
1587052498071;-111;-47;64;79;-87;9;0;0;0;0;0
1587052498073;-119;-29;90;74;-104;31;0;0;0;0;0
1587052498075;-121;-15;106;68;-113;46;0;0;0;0;0
1587052498077;-118;-23;95;70;-106;36;0;0;0;0;0
1587052498079;-119;-26;93;72;-106;34;0;0;0;0;0
1587052498081;-125;-24;101;74;-113;39;0;0;0;0;0
1587052498083;-117;-27;90;72;-103;32;0;0;0;0;0
1587052498085;-96;-27;69;61;-82;21;0;0;0;0;0
1587052498087;-105;-11;94;58;-99;42;0;0;0;0;0
1587052498089;-121;11;132;55;-126;72;0;0;0;0;0
1587052498091;-119;7;126;56;-122;67;0;0;0;0;0
1587052498093;-111;-36;75;73;-93;20;0;0;0;0;0
1587052498095;-104;-64;40;84;-72;-12;0;0;0;0;0
1587052498097;-99;-42;57;70;-78;8;0;0;0;0;0
1587052498099;-91;-15;76;53;-83;31;0;0;0;0;0
1587052498101;-93;-15;78;54;-85;32;0;0;0;0;0
1587052498103;-102;-23;79;62;-90;28;0;0;0;0;0
1587052498105;-103;-22;81;62;-92;30;0;0;0;0;0
1587052498107;-101;-13;88;57;-94;38;0;0;0;0;0
1587052498109;-110;-19;91;64;-100;36;0;0;0;0;0
1587052498111;-133;-29;104;81;-118;38;0;0;0;0;0
1587052498113;-127;-28;99;77;-113;36;0;0;0;0;0
1587052498115;-102;-25;77;63;-89;26;0;0;0;0;0
1587052498117;-90;-27;63;58;-76;18;0;0;0;0;0
1587052498119;-68;-35;33;51;-50;-1;0;0;0;0;0
1587052498121;-55;-44;11;49;-33;-16;0;0;0;0;0
1587052498123;-80;-46;34;63;-57;-6;0;0;0;0;0
1587052498125;-100;-35;65;67;-82;15;0;0;0;0;0
1587052498127;-103;-28;75;65;-89;24;0;0;0;0;0
1587052498129;-115;-31;84;73;-99;27;0;0;0;0;0
1587052498131;-100;-29;71;64;-85;21;0;0;0;0;0
1587052498133;-74;-22;52;48;-63;15;0;0;0;0;0
1587052498135;-72;-27;45;49;-58;9;0;0;0;0;0
1587052498137;-60;-36;24;48;-42;-6;0;0;0;0;0
1587052498139;-51;-38;13;44;-32;-12;0;0;0;0;0
1587052498141;-97;-54;43;75;-70;-5;0;0;0;0;0
1587052498143;-152;-60;92;106;-122;16;0;0;0;0;0
1587052498145;-162;-52;110;107;-136;29;0;0;0;0;0
1587052498147;-145;-49;96;97;-120;24;0;0;0;0;0
1587052498149;-125;-40;85;82;-105;23;0;0;0;0;0
1587052498151;-129;-20;109;74;-119;45;0;0;0;0;0
1587052498153;-135;-4;131;69;-133;64;0;0;0;0;0
1587052498155;-125;-8;117;66;-121;55;0;0;0;0;0
1587052498157;-111;-12;99;61;-105;44;0;0;0;0;0
1587052498159;-99;-21;78;60;-88;29;0;0;0;0;0
1587052498161;-100;-49;51;74;-75;1;0;0;0;0;0
1587052498163;-101;-43;58;72;-79;8;0;0;0;0;0
1587052498165;-113;-30;83;71;-98;27;0;0;0;0;0
1587052498167;-130;-41;89;85;-109;24;0;0;0;0;0
1587052498169;-111;-35;76;73;-93;21;0;0;0;0;0
1587052498171;-93;-27;66;60;-79;20;0;0;0;0;0
1587052498173;-99;-25;74;62;-86;25;0;0;0;0;0
1587052498175;-106;-26;80;66;-93;27;0;0;0;0;0
1587052498177;-102;-34;68;68;-85;17;0;0;0;0;0
1587052498179;-88;-41;47;64;-67;3;0;0;0;0;0
1587052498181;-80;-45;35;62;-57;-5;0;0;0;0;0
1587052498183;-74;-49;25;61;-49;-12;0;0;0;0;0
1587052498185;-77;-50;27;63;-52;-11;0;0;0;0;0
1587052498187;-87;-50;37;68;-62;-6;0;0;0;0;0
1587052498189;-90;-45;45;67;-67;0;0;0;0;0;0
1587052498191;-96;-32;64;64;-80;16;0;0;0;0;0
1587052498193;-95;-27;68;61;-81;21;0;0;0;0;0
1587052498195;-65;-35;30;50;-47;-2;0;0;0;0;0
1587052498197;-50;-39;11;44;-30;-14;0;0;0;0;0
1587052498199;-61;-42;19;51;-40;-11;0;0;0;0;0
1587052498201;-69;-46;23;57;-46;-11;0;0;0;0;0
1587052498203;-88;-36;52;62;-70;8;0;0;0;0;0
1587052498205;-104;-12;92;58;-98;40;0;0;0;0;0
1587052498207;-105;-2;103;53;-104;51;0;0;0;0;0
1587052498209;-92;-19;73;55;-82;27;0;0;0;0;0
1587052498211;-77;-38;39;57;-58;1;0;0;0;0;0
1587052498213;-78;-55;23;66;-50;-16;0;0;0;0;0
1587052498215;-65;-55;10;60;-37;-22;0;0;0;0;0
1587052498217;-43;-42;1;42;-22;-20;0;0;0;0;0
1587052498219;-35;-30;5;32;-20;-12;0;0;0;0;0
1587052498221;-45;-26;19;35;-32;-3;0;0;0;0;0
1587052498223;-64;-35;29;49;-46;-3;0;0;0;0;0
1587052498225;-82;-41;41;61;-61;0;0;0;0;0;0
1587052498227;-88;-49;39;68;-63;-5;0;0;0;0;0
1587052498229;-91;-46;45;68;-68;0;0;0;0;0;0
1587052498231;-98;-29;69;63;-83;20;0;0;0;0;0
1587052498233;-92;-28;64;60;-78;18;0;0;0;0;0
1587052498235;-86;-37;49;61;-67;6;0;0;0;0;0
1587052498237;-76;-27;49;51;-62;11;0;0;0;0;0
1587052498239;-63;-26;37;44;-50;6;0;0;0;0;0
1587052498241;-63;-44;19;53;-41;-12;0;0;0;0;0
1587052498243;-64;-45;19;54;-41;-13;0;0;0;0;0
1587052498245;-61;-28;33;44;-47;3;0;0;0;0;0
1587052498247;-54;-25;29;39;-41;2;0;0;0;0;0
1587052498249;-57;-43;14;50;-35;-14;0;0;0;0;0
1587052498251;-50;-28;22;39;-36;-3;0;0;0;0;0
1587052498253;-31;0;31;15;-31;16;0;0;0;0;0
1587052498255;-26;-2;24;14;-25;11;0;0;0;0;0
1587052498257;-25;-12;13;18;-19;1;0;0;0;0;0
1587052498259;-16;-22;-6;19;-5;-14;0;0;0;0;0
1587052498261;-30;-35;-5;32;-12;-20;0;0;0;0;0
1587052498263;-54;-43;11;48;-32;-16;0;0;0;0;0
1587052498265;-56;-39;17;47;-36;-11;0;0;0;0;0
1587052498267;-50;-20;30;35;-40;5;0;0;0;0;0
1587052498269;-37;8;45;14;-41;27;0;0;0;0;0
1587052498271;-29;9;38;10;-33;24;0;0;0;0;0
1587052498273;-15;-2;13;8;-14;6;0;0;0;0;0
1587052498275;-1;-3;-2;2;1;-2;0;0;0;0;0
1587052498277;-25;-4;21;14;-23;9;0;0;0;0;0
1587052498279;-53;-5;48;29;-50;22;0;0;0;0;0
1587052498281;-50;-3;47;26;-48;22;0;0;0;0;0
1587052498283;-54;-3;51;28;-52;24;0;0;0;0;0
1587052498285;-65;0;65;32;-65;33;0;0;0;0;0
1587052498287;-41;2;43;19;-42;23;0;0;0;0;0
1587052498289;-6;8;14;-1;-10;11;0;0;0;0;0
1587052498291;-5;21;26;-8;-15;24;0;0;0;0;0
1587052498293;-27;20;47;3;-37;34;0;0;0;0;0
1587052498295;-48;15;63;16;-55;39;0;0;0;0;0
1587052498297;-63;17;80;23;-71;49;0;0;0;0;0
1587052498299;-63;11;74;26;-68;43;0;0;0;0;0
1587052498301;-43;11;54;16;-48;33;0;0;0;0;0
1587052498303;-24;19;43;2;-33;31;0;0;0;0;0
1587052498305;-16;19;35;-2;-25;27;0;0;0;0;0
1587052498307;-17;4;21;6;-19;13;0;0;0;0;0
1587052498309;-15;-3;12;9;-13;5;0;0;0;0;0
1587052498311;0;10;10;-5;-5;10;0;0;0;0;0
1587052498313;-7;11;18;-2;-12;15;0;0;0;0;0
1587052498315;-33;1;34;16;-33;18;0;0;0;0;0
1587052498317;-38;-8;30;23;-34;11;0;0;0;0;0
1587052498319;-8;-10;-2;9;-3;-6;0;0;0;0;0
1587052498321;-11;-13;-2;12;-4;-7;0;0;0;0;0
1587052498323;-60;-27;33;43;-46;3;0;0;0;0;0
1587052498325;-66;-24;42;45;-54;9;0;0;0;0;0
1587052498327;-48;-16;32;32;-40;8;0;0;0;0;0
1587052498329;-48;-33;15;40;-31;-9;0;0;0;0;0
1587052498331;-41;-50;-9;45;-16;-29;0;0;0;0;0
1587052498333;-32;-31;1;31;-16;-15;0;0;0;0;0
1587052498335;-25;-15;10;20;-17;-2;0;0;0;0;0
1587052498337;-24;-30;-6;27;-9;-18;0;0;0;0;0
1587052498339;-40;-53;-13;46;-13;-33;0;0;0;0;0
1587052498341;-45;-68;-23;56;-11;-45;0;0;0;0;0
1587052498343;-28;-63;-35;45;4;-49;0;0;0;0;0
1587052498345;-19;-54;-35;36;8;-44;0;0;0;0;0
1587052498347;-11;-53;-42;32;16;-47;0;0;0;0;0
1587052498349;8;-57;-65;24;37;-61;0;0;0;0;0
1587052498351;2;-56;-58;27;30;-57;0;0;0;0;0
1587052498353;-20;-52;-32;36;6;-42;0;0;0;0;0
1587052498355;-36;-52;-16;44;-10;-34;0;0;0;0;0
1587052498357;-57;-57;0;57;-28;-28;0;0;0;0;0
1587052498359;-66;-63;3;64;-34;-30;0;0;0;0;0
1587052498361;-62;-57;5;59;-33;-26;0;0;0;0;0
1587052498363;-51;-50;1;50;-26;-24;0;0;0;0;0
1587052498365;-27;-46;-19;36;-4;-32;0;0;0;0;0
1587052498367;-17;-44;-27;30;5;-35;0;0;0;0;0
1587052498369;-11;-48;-37;29;13;-42;0;0;0;0;0
1587052498371;7;-56;-63;24;35;-59;0;0;0;0;0
1587052498373;2;-54;-56;26;29;-55;0;0;0;0;0
1587052498375;-14;-60;-46;37;16;-53;0;0;0;0;0
1587052498377;-13;-71;-58;42;23;-64;0;0;0;0;0
1587052498379;-1;-66;-65;33;32;-65;0;0;0;0;0
1587052498381;26;-57;-83;15;55;-70;0;0;0;0;0
1587052498383;24;-59;-83;17;54;-71;0;0;0;0;0
1587052498385;-7;-74;-67;40;30;-70;0;0;0;0;0
1587052498387;-7;-67;-60;37;27;-63;0;0;0;0;0
1587052498389;-9;-47;-38;28;15;-42;0;0;0;0;0
1587052498391;-25;-31;-6;28;-9;-18;0;0;0;0;0
1587052498393;-22;-19;3;20;-12;-8;0;0;0;0;0
1587052498395;-20;-14;6;17;-13;-4;0;0;0;0;0
1587052498397;-58;-23;35;40;-46;6;0;0;0;0;0
1587052498399;-108;-46;62;77;-85;8;0;0;0;0;0
1587052498401;-97;-65;32;81;-64;-16;0;0;0;0;0
1587052498403;-35;-92;-57;63;11;-74;0;0;0;0;0
1587052498405;5;-111;-116;53;61;-113;0;0;0;0;0
1587052498407;-4;-115;-111;59;54;-113;0;0;0;0;0
1587052498409;-41;-126;-85;83;22;-105;0;0;0;0;0
1587052498411;-92;-119;-27;105;-32;-73;0;0;0;0;0
1587052498413;-91;-97;-6;94;-42;-51;0;0;0;0;0
1587052498415;-78;-74;4;76;-41;-35;0;0;0;0;0
1587052498417;-63;-44;19;53;-41;-12;0;0;0;0;0
1587052498419;-14;-8;6;11;-10;-1;0;0;0;0;0
1587052498421;27;40;13;-34;7;27;0;0;0;0;0
1587052498423;79;111;32;-95;24;72;0;0;0;0;0
1587052498425;135;184;49;-160;43;117;0;0;0;0;0
1587052498427;190;255;65;-223;63;160;0;0;0;0;0
1587052498429;230;335;105;-283;63;220;0;0;0;0;0
1587052498431;245;424;179;-335;33;302;0;0;0;0;0
1587052498433;209;530;321;-370;-56;426;0;0;0;0;0
1587052498435;134;649;515;-392;-190;582;0;0;0;0;0
1587052498437;90;755;665;-423;-287;710;0;0;0;0;0
1587052498439;60;772;712;-416;-326;742;0;0;0;0;0
1587052498441;13;713;700;-363;-343;707;0;0;0;0;0
1587052498443;-36;641;677;-303;-356;659;0;0;0;0;0
1587052498445;-83;545;628;-231;-355;587;0;0;0;0;0
1587052498447;-117;438;555;-161;-336;497;0;0;0;0;0
1587052498449;-142;328;470;-93;-306;399;0;0;0;0;0
1587052498451;-165;232;397;-34;-281;315;0;0;0;0;0
1587052498453;-187;153;340;17;-263;247;0;0;0;0;0
1587052498455;-173;92;265;40;-219;179;0;0;0;0;0
1587052498457;-140;57;197;41;-168;127;0;0;0;0;0
1587052498459;-92;32;124;30;-108;78;0;0;0;0;0
1587052498461;-50;14;64;18;-57;39;0;0;0;0;0
1587052498463;-84;-12;72;48;-78;30;0;0;0;0;0
1587052498465;-102;-38;64;70;-83;13;0;0;0;0;0
1587052498467;-67;-45;22;56;-44;-11;0;0;0;0;0
1587052498469;-71;-49;22;60;-46;-13;0;0;0;0;0
1587052498471;-104;-58;46;81;-75;-6;0;0;0;0;0
1587052498473;-120;-59;61;89;-90;1;0;0;0;0;0
1587052498475;-103;-44;59;73;-81;8;0;0;0;0;0
1587052498477;-92;-27;65;59;-78;19;0;0;0;0;0
1587052498479;-95;-19;76;57;-85;29;0;0;0;0;0
1587052498481;-83;-15;68;49;-75;27;0;0;0;0;0
1587052498483;-74;-23;51;48;-62;14;0;0;0;0;0
1587052498485;-80;-48;32;64;-56;-8;0;0;0;0;0
1587052498487;-96;-57;39;76;-67;-9;0;0;0;0;0
1587052498489;-88;-14;74;51;-81;30;0;0;0;0;0
1587052498491;-76;30;106;23;-91;68;0;0;0;0;0
1587052498493;-93;33;126;30;-109;80;0;0;0;0;0
1587052498495;-118;20;138;49;-128;79;0;0;0;0;0
1587052498497;-141;-18;123;79;-132;53;0;0;0;0;0
1587052498499;-145;-62;83;103;-114;11;0;0;0;0;0
1587052498501;-130;-72;58;101;-94;-7;0;0;0;0;0
1587052498503;-129;-61;68;95;-98;4;0;0;0;0;0
1587052498505;-123;-53;70;88;-96;9;0;0;0;0;0
1587052498507;-125;-61;64;93;-94;2;0;0;0;0;0
1587052498509;-143;-81;62;112;-102;-9;0;0;0;0;0
1587052498511;-129;-87;42;108;-85;-22;0;0;0;0;0
1587052498513;-113;-73;40;93;-76;-16;0;0;0;0;0
1587052498515;-132;-65;67;98;-99;1;0;0;0;0;0
1587052498517;-140;-63;77;101;-108;7;0;0;0;0;0
1587052498519;-146;-50;96;98;-121;23;0;0;0;0;0
1587052498521;-136;-37;99;86;-117;31;0;0;0;0;0
1587052498523;-126;-43;83;84;-104;20;0;0;0;0;0
1587052498525;-136;-57;79;96;-107;11;0;0;0;0;0
1587052498527;-129;-61;68;95;-98;4;0;0;0;0;0
1587052498529;-135;-63;72;99;-103;5;0;0;0;0;0
1587052498531;-153;-61;92;107;-122;16;0;0;0;0;0
1587052498533;-146;-52;94;99;-120;21;0;0;0;0;0
1587052498535;-120;-41;79;80;-99;19;0;0;0;0;0
1587052498537;-95;-16;79;55;-87;32;0;0;0;0;0
1587052498539;-116;3;119;56;-117;61;0;0;0;0;0
1587052498541;-160;-10;150;85;-155;70;0;0;0;0;0
1587052498543;-150;-14;136;82;-143;61;0;0;0;0;0
1587052498545;-105;-6;99;55;-102;47;0;0;0;0;0
1587052498547;-69;-11;58;40;-63;24;0;0;0;0;0
1587052498549;-69;-26;43;47;-56;9;0;0;0;0;0
1587052498551;-105;-56;49;80;-77;-3;0;0;0;0;0
1587052498553;-140;-76;64;108;-102;-6;0;0;0;0;0
1587052498555;-166;-77;89;121;-127;6;0;0;0;0;0
1587052498557;-168;-74;94;121;-131;10;0;0;0;0;0
1587052498559;-129;-67;62;98;-95;-2;0;0;0;0;0
1587052498561;-111;-53;58;82;-84;3;0;0;0;0;0
1587052498563;-120;-47;73;83;-96;13;0;0;0;0;0
1587052498565;-127;-47;80;87;-103;17;0;0;0;0;0
1587052498567;-130;-47;83;88;-106;18;0;0;0;0;0
1587052498569;-126;-48;78;87;-102;15;0;0;0;0;0
1587052498571;-100;-38;62;69;-81;12;0;0;0;0;0
1587052498573;-93;-27;66;60;-79;20;0;0;0;0;0
1587052498575;-103;-29;74;66;-88;23;0;0;0;0;0
1587052498577;-127;-37;90;82;-108;27;0;0;0;0;0
1587052498579;-143;-43;100;93;-121;29;0;0;0;0;0
1587052498581;-145;-35;110;90;-127;38;0;0;0;0;0
1587052498583;-167;-33;134;100;-150;51;0;0;0;0;0
1587052498585;-138;-43;95;90;-116;26;0;0;0;0;0
1587052498587;-104;-46;58;75;-81;6;0;0;0;0;0
1587052498589;-86;-41;45;63;-65;2;0;0;0;0;0
1587052498591;-74;-39;35;56;-54;-2;0;0;0;0;0
1587052498593;-79;-36;43;57;-61;4;0;0;0;0;0
1587052498595;-100;-23;77;61;-88;27;0;0;0;0;0
1587052498597;-102;-3;99;52;-100;48;0;0;0;0;0
1587052498599;-80;13;93;33;-86;53;0;0;0;0;0
1587052498601;-103;10;113;46;-108;62;0;0;0;0;0
1587052498603;-134;-7;127;70;-130;60;0;0;0;0;0
1587052498605;-141;-20;121;80;-131;51;0;0;0;0;0
1587052498607;-121;-20;101;70;-111;41;0;0;0;0;0
1587052498609;-102;-20;82;61;-92;31;0;0;0;0;0
1587052498611;-93;-18;75;55;-84;29;0;0;0;0;0
1587052498613;-89;-22;67;55;-78;23;0;0;0;0;0
1587052498615;-85;-27;58;56;-71;16;0;0;0;0;0
1587052498617;-66;-17;49;41;-57;16;0;0;0;0;0
1587052498619;-72;-8;64;40;-68;28;0;0;0;0;0
1587052498621;-73;-11;62;42;-67;26;0;0;0;0;0
1587052498623;-58;-15;43;36;-50;14;0;0;0;0;0
1587052498625;-64;-15;49;39;-56;17;0;0;0;0;0
1587052498627;-76;-10;66;43;-71;28;0;0;0;0;0
1587052498629;-80;-5;75;42;-77;35;0;0;0;0;0
1587052498631;-89;-2;87;45;-88;43;0;0;0;0;0
1587052498633;-113;-3;110;58;-111;54;0;0;0;0;0
1587052498635;-102;-12;90;57;-96;39;0;0;0;0;0
1587052498637;-49;-11;38;30;-43;14;0;0;0;0;0
1587052498639;-41;-3;38;22;-39;18;0;0;0;0;0
1587052498641;-30;-4;26;17;-28;11;0;0;0;0;0
1587052498643;-20;-1;19;10;-19;9;0;0;0;0;0
1587052498645;-42;17;59;12;-50;38;0;0;0;0;0
1587052498647;-45;30;75;7;-60;53;0;0;0;0;0
1587052498649;-44;38;82;3;-63;60;0;0;0;0;0
1587052498651;-28;66;94;-19;-61;80;0;0;0;0;0
1587052498653;-2;64;66;-31;-34;65;0;0;0;0;0
1587052498655;23;46;23;-35;0;35;0;0;0;0;0
1587052498657;35;42;7;-39;14;25;0;0;0;0;0
1587052498659;37;29;-8;-33;23;11;0;0;0;0;0
1587052498661;10;11;1;-11;5;6;0;0;0;0;0
1587052498663;10;8;-2;-9;6;3;0;0;0;0;0
1587052498665;25;24;-1;-25;13;12;0;0;0;0;0
1587052498667;-11;33;44;-11;-27;39;0;0;0;0;0
1587052498669;-10;39;49;-15;-29;44;0;0;0;0;0
1587052498671;25;35;10;-30;8;23;0;0;0;0;0
1587052498673;42;31;-11;-37;27;10;0;0;0;0;0
1587052498675;38;43;5;-41;17;24;0;0;0;0;0
1587052498677;36;51;15;-44;11;33;0;0;0;0;0
1587052498679;36;50;14;-43;11;32;0;0;0;0;0
1587052498681;26;49;23;-38;2;36;0;0;0;0;0
1587052498683;27;53;26;-40;1;40;0;0;0;0;0
1587052498685;44;53;9;-49;18;31;0;0;0;0;0
1587052498687;84;55;-29;-70;57;13;0;0;0;0;0
1587052498689;132;61;-71;-97;102;-5;0;0;0;0;0
1587052498691;142;61;-81;-102;112;-10;0;0;0;0;0
1587052498693;117;60;-57;-89;87;2;0;0;0;0;0
1587052498695;86;75;-11;-81;49;32;0;0;0;0;0
1587052498697;54;103;49;-79;3;76;0;0;0;0;0
1587052498699;47;123;76;-85;-14;100;0;0;0;0;0
1587052498701;69;136;67;-103;1;102;0;0;0;0;0
1587052498703;95;128;33;-112;31;81;0;0;0;0;0
1587052498705;118;112;-6;-115;62;53;0;0;0;0;0
1587052498707;144;93;-51;-119;98;21;0;0;0;0;0
1587052498709;132;76;-56;-104;94;10;0;0;0;0;0
1587052498711;94;80;-14;-87;54;33;0;0;0;0;0
1587052498713;80;90;10;-85;35;50;0;0;0;0;0
1587052498715;100;93;-7;-97;54;43;0;0;0;0;0
1587052498717;139;95;-44;-117;92;26;0;0;0;0;0
1587052498719;149;96;-53;-123;101;22;0;0;0;0;0
1587052498721;140;87;-53;-114;97;17;0;0;0;0;0
1587052498723;137;87;-50;-112;94;19;0;0;0;0;0
1587052498725;134;86;-48;-110;91;19;0;0;0;0;0
1587052498727;128;64;-64;-96;96;0;0;0;0;0;0
1587052498729;107;59;-48;-83;78;6;0;0;0;0;0
1587052498731;94;72;-22;-83;58;25;0;0;0;0;0
1587052498733;112;77;-35;-95;74;21;0;0;0;0;0
1587052498735;131;86;-45;-109;88;21;0;0;0;0;0
1587052498737;121;93;-28;-107;75;33;0;0;0;0;0
1587052498739;126;89;-37;-108;82;26;0;0;0;0;0
1587052498741;135;76;-59;-106;97;9;0;0;0;0;0
1587052498743;121;50;-71;-86;96;-10;0;0;0;0;0
1587052498745;126;25;-101;-76;114;-38;0;0;0;0;0
1587052498747;126;19;-107;-73;117;-44;0;0;0;0;0
1587052498749;125;26;-99;-76;112;-36;0;0;0;0;0
1587052498751;137;33;-104;-85;121;-35;0;0;0;0;0
1587052498753;123;28;-95;-76;109;-33;0;0;0;0;0
1587052498755;101;16;-85;-59;93;-34;0;0;0;0;0
1587052498757;121;7;-114;-64;118;-53;0;0;0;0;0
1587052498759;130;-8;-138;-61;134;-73;0;0;0;0;0
1587052498761;96;-15;-111;-41;104;-63;0;0;0;0;0
1587052498763;96;-6;-102;-45;99;-54;0;0;0;0;0
1587052498765;105;-2;-107;-52;106;-54;0;0;0;0;0
1587052498767;97;-5;-102;-46;100;-53;0;0;0;0;0
1587052498769;105;6;-99;-56;102;-46;0;0;0;0;0
1587052498771;109;28;-81;-69;95;-26;0;0;0;0;0
1587052498773;130;16;-114;-73;122;-49;0;0;0;0;0
1587052498775;135;-18;-153;-59;144;-85;0;0;0;0;0
1587052498777;85;-25;-110;-30;98;-67;0;0;0;0;0
1587052498779;60;-18;-78;-21;69;-48;0;0;0;0;0
1587052498781;75;-24;-99;-26;87;-61;0;0;0;0;0
1587052498783;91;-35;-126;-28;109;-80;0;0;0;0;0
1587052498785;116;-33;-149;-42;133;-91;0;0;0;0;0
1587052498787;134;-28;-162;-53;148;-95;0;0;0;0;0
1587052498789;123;-26;-149;-49;136;-87;0;0;0;0;0
1587052498791;90;-23;-113;-34;102;-68;0;0;0;0;0
1587052498793;60;-30;-90;-15;75;-60;0;0;0;0;0
1587052498795;48;-38;-86;-5;67;-62;0;0;0;0;0
1587052498797;72;-38;-110;-17;91;-74;0;0;0;0;0
1587052498799;117;-40;-157;-39;137;-98;0;0;0;0;0
1587052498801;117;-42;-159;-38;138;-100;0;0;0;0;0
1587052498803;112;-40;-152;-36;132;-96;0;0;0;0;0
1587052498805;116;-15;-131;-51;124;-73;0;0;0;0;0
1587052498807;99;5;-94;-52;97;-44;0;0;0;0;0
1587052498809;65;-14;-79;-26;72;-46;0;0;0;0;0
1587052498811;12;-34;-46;11;29;-40;0;0;0;0;0
1587052498813;37;-36;-73;-1;55;-54;0;0;0;0;0
1587052498815;113;-34;-147;-40;130;-90;0;0;0;0;0
1587052498817;116;-21;-137;-48;127;-79;0;0;0;0;0
1587052498819;101;-15;-116;-43;109;-65;0;0;0;0;0
1587052498821;120;-16;-136;-52;128;-76;0;0;0;0;0
1587052498823;124;-17;-141;-54;133;-79;0;0;0;0;0
1587052498825;125;-23;-148;-51;137;-85;0;0;0;0;0
1587052498827;103;-20;-123;-42;113;-71;0;0;0;0;0
1587052498829;39;-25;-64;-7;52;-44;0;0;0;0;0
1587052498831;53;-43;-96;-5;75;-69;0;0;0;0;0
1587052498833;95;-34;-129;-31;112;-81;0;0;0;0;0
1587052498835;73;-9;-82;-32;78;-45;0;0;0;0;0
1587052498837;49;-13;-62;-18;56;-37;0;0;0;0;0
1587052498839;57;-32;-89;-13;73;-60;0;0;0;0;0
1587052498841;75;-32;-107;-22;91;-69;0;0;0;0;0
1587052498843;79;-20;-99;-30;89;-59;0;0;0;0;0
1587052498845;87;-18;-105;-35;96;-61;0;0;0;0;0
1587052498847;111;-18;-129;-47;120;-73;0;0;0;0;0
1587052498849;112;-13;-125;-50;119;-69;0;0;0;0;0
1587052498851;93;-12;-105;-41;99;-58;0;0;0;0;0
1587052498853;95;-15;-110;-40;103;-62;0;0;0;0;0
1587052498855;114;-21;-135;-47;125;-78;0;0;0;0;0
1587052498857;109;-29;-138;-40;124;-83;0;0;0;0;0
1587052498859;99;-36;-135;-32;117;-85;0;0;0;0;0
1587052498861;107;-33;-140;-37;124;-86;0;0;0;0;0
1587052498863;89;-21;-110;-34;100;-65;0;0;0;0;0
1587052498865;71;-16;-87;-28;79;-51;0;0;0;0;0
1587052498867;91;-17;-108;-37;100;-62;0;0;0;0;0
1587052498869;103;-15;-118;-44;111;-66;0;0;0;0;0
1587052498871;91;-24;-115;-34;103;-69;0;0;0;0;0
1587052498873;71;-32;-103;-20;87;-67;0;0;0;0;0
1587052498875;58;-24;-82;-17;70;-53;0;0;0;0;0
1587052498877;74;-23;-97;-26;86;-60;0;0;0;0;0
1587052498879;106;-25;-131;-41;119;-78;0;0;0;0;0
1587052498881;98;-21;-119;-39;109;-70;0;0;0;0;0
1587052498883;85;-23;-108;-31;97;-65;0;0;0;0;0
1587052498885;96;-26;-122;-35;109;-74;0;0;0;0;0
1587052498887;95;-24;-119;-36;107;-71;0;0;0;0;0
1587052498889;103;-20;-123;-42;113;-71;0;0;0;0;0
1587052498891;111;-32;-143;-40;127;-87;0;0;0;0;0
1587052498893;89;-49;-138;-20;114;-93;0;0;0;0;0
1587052498895;69;-38;-107;-16;88;-72;0;0;0;0;0
1587052498897;77;-12;-89;-33;83;-50;0;0;0;0;0
1587052498899;78;1;-77;-40;78;-38;0;0;0;0;0
1587052498901;66;-17;-83;-25;75;-50;0;0;0;0;0
1587052498903;55;-34;-89;-11;72;-61;0;0;0;0;0
1587052498905;58;-25;-83;-17;71;-54;0;0;0;0;0
1587052498907;68;-24;-92;-22;80;-58;0;0;0;0;0
1587052498909;79;-31;-110;-24;95;-70;0;0;0;0;0
1587052498911;99;-22;-121;-39;110;-71;0;0;0;0;0
1587052498913;124;-3;-127;-61;126;-65;0;0;0;0;0
1587052498915;113;-3;-116;-55;115;-59;0;0;0;0;0
1587052498917;74;-30;-104;-22;89;-67;0;0;0;0;0
1587052498919;44;-43;-87;-1;66;-65;0;0;0;0;0
1587052498921;56;-20;-76;-18;66;-48;0;0;0;0;0
1587052498923;65;-7;-72;-29;69;-39;0;0;0;0;0
1587052498925;56;-8;-64;-24;60;-36;0;0;0;0;0
1587052498927;70;-15;-85;-28;78;-50;0;0;0;0;0
1587052498929;100;-26;-126;-37;113;-76;0;0;0;0;0
1587052498931;109;-18;-127;-46;118;-72;0;0;0;0;0
1587052498933;83;-18;-101;-33;92;-59;0;0;0;0;0
1587052498935;61;-27;-88;-17;75;-57;0;0;0;0;0
1587052498937;54;-26;-80;-14;67;-53;0;0;0;0;0
1587052498939;52;-37;-89;-8;71;-63;0;0;0;0;0
1587052498941;54;-37;-91;-9;73;-64;0;0;0;0;0
1587052498943;50;-24;-74;-13;62;-49;0;0;0;0;0
1587052498945;32;-31;-63;-1;48;-47;0;0;0;0;0
1587052498947;19;-32;-51;6;35;-41;0;0;0;0;0
1587052498949;31;-29;-60;-1;46;-44;0;0;0;0;0
1587052498951;89;-37;-126;-26;108;-81;0;0;0;0;0
1587052498953;149;-25;-174;-62;162;-99;0;0;0;0;0
1587052498955;160;-12;-172;-74;166;-92;0;0;0;0;0
1587052498957;149;-29;-178;-60;164;-103;0;0;0;0;0
1587052498959;132;-33;-165;-50;149;-99;0;0;0;0;0
1587052498961;115;-25;-140;-45;128;-82;0;0;0;0;0
1587052498963;104;-19;-123;-43;114;-71;0;0;0;0;0
1587052498965;82;-22;-104;-30;93;-63;0;0;0;0;0
1587052498967;68;-38;-106;-15;87;-72;0;0;0;0;0
1587052498969;63;-49;-112;-7;88;-80;0;0;0;0;0
1587052498971;64;-52;-116;-6;90;-84;0;0;0;0;0
1587052498973;64;-49;-113;-8;89;-81;0;0;0;0;0
1587052498975;54;-38;-92;-8;73;-65;0;0;0;0;0
1587052498977;52;-17;-69;-18;61;-43;0;0;0;0;0
1587052498979;58;-12;-70;-23;64;-41;0;0;0;0;0
1587052498981;83;-27;-110;-28;97;-68;0;0;0;0;0
1587052498983;130;-30;-160;-50;145;-95;0;0;0;0;0
1587052498985;133;-20;-153;-57;143;-86;0;0;0;0;0
1587052498987;85;-16;-101;-35;93;-58;0;0;0;0;0
1587052498989;43;-26;-69;-9;56;-47;0;0;0;0;0
1587052498991;59;-41;-100;-9;80;-70;0;0;0;0;0
1587052498993;89;-41;-130;-24;110;-85;0;0;0;0;0
1587052498995;73;-27;-100;-23;87;-63;0;0;0;0;0
1587052498997;50;-40;-90;-5;70;-65;0;0;0;0;0
1587052498999;58;-54;-112;-2;85;-83;0;0;0;0;0
1587052499001;68;-55;-123;-7;96;-89;0;0;0;0;0
1587052499003;51;-50;-101;-1;76;-75;0;0;0;0;0
1587052499005;51;-31;-82;-10;67;-56;0;0;0;0;0
1587052499007;65;-29;-94;-18;80;-61;0;0;0;0;0
1587052499009;79;-34;-113;-23;96;-73;0;0;0;0;0
1587052499011;93;-32;-125;-31;109;-78;0;0;0;0;0
1587052499013;112;-31;-143;-41;128;-87;0;0;0;0;0
1587052499015;128;-26;-154;-51;141;-90;0;0;0;0;0
1587052499017;122;-29;-151;-47;137;-90;0;0;0;0;0
1587052499019;86;-47;-133;-20;110;-90;0;0;0;0;0
1587052499021;47;-48;-95;0;71;-71;0;0;0;0;0
1587052499023;64;-35;-99;-15;82;-67;0;0;0;0;0
1587052499025;92;-32;-124;-30;108;-78;0;0;0;0;0
1587052499027;82;-47;-129;-18;106;-88;0;0;0;0;0
1587052499029;60;-51;-111;-5;86;-81;0;0;0;0;0
1587052499031;59;-44;-103;-8;81;-73;0;0;0;0;0
1587052499033;81;-45;-126;-18;104;-85;0;0;0;0;0
1587052499035;86;-50;-136;-18;111;-93;0;0;0;0;0
1587052499037;75;-58;-133;-9;104;-95;0;0;0;0;0
1587052499039;76;-62;-138;-7;107;-100;0;0;0;0;0
1587052499041;80;-58;-138;-11;109;-98;0;0;0;0;0
1587052499043;75;-52;-127;-12;101;-89;0;0;0;0;0
1587052499045;77;-46;-123;-16;100;-84;0;0;0;0;0
1587052499047;69;-50;-119;-10;94;-84;0;0;0;0;0
1587052499049;49;-62;-111;6;80;-86;0;0;0;0;0
1587052499051;65;-58;-123;-4;94;-90;0;0;0;0;0
1587052499053;106;-42;-148;-32;127;-95;0;0;0;0;0
1587052499055;122;-33;-155;-45;139;-94;0;0;0;0;0
1587052499057;113;-18;-131;-48;122;-74;0;0;0;0;0
1587052499059;118;-10;-128;-54;123;-69;0;0;0;0;0
1587052499061;129;-29;-158;-50;144;-93;0;0;0;0;0
1587052499063;134;-45;-179;-45;157;-112;0;0;0;0;0
1587052499065;132;-51;-183;-41;158;-117;0;0;0;0;0
1587052499067;121;-43;-164;-39;143;-103;0;0;0;0;0
1587052499069;96;-28;-124;-34;110;-76;0;0;0;0;0
1587052499071;81;-33;-114;-24;98;-73;0;0;0;0;0
1587052499073;87;-38;-125;-25;106;-81;0;0;0;0;0
1587052499075;100;-34;-134;-33;117;-84;0;0;0;0;0
1587052499077;122;-34;-156;-44;139;-95;0;0;0;0;0
1587052499079;134;-40;-174;-47;154;-107;0;0;0;0;0
1587052499081;134;-46;-180;-44;157;-113;0;0;0;0;0
1587052499083;135;-34;-169;-51;152;-101;0;0;0;0;0
1587052499085;133;-25;-158;-54;146;-91;0;0;0;0;0
1587052499087;112;-31;-143;-41;128;-87;0;0;0;0;0
1587052499089;107;-38;-145;-35;126;-91;0;0;0;0;0
1587052499091;121;-39;-160;-41;141;-99;0;0;0;0;0
1587052499093;93;-42;-135;-26;114;-88;0;0;0;0;0
1587052499095;66;-31;-97;-18;82;-64;0;0;0;0;0
1587052499097;84;-9;-93;-38;89;-51;0;0;0;0;0
1587052499099;102;2;-100;-52;101;-49;0;0;0;0;0
1587052499101;106;2;-104;-54;105;-51;0;0;0;0;0
1587052499103;122;2;-120;-62;121;-59;0;0;0;0;0
1587052499105;136;15;-121;-76;129;-53;0;0;0;0;0
1587052499107;135;15;-120;-75;128;-52;0;0;0;0;0
1587052499109;131;4;-127;-68;129;-61;0;0;0;0;0
1587052499111;142;-2;-144;-70;143;-73;0;0;0;0;0
1587052499113;146;-11;-157;-68;152;-84;0;0;0;0;0
1587052499115;135;0;-135;-68;135;-67;0;0;0;0;0
1587052499117;107;12;-95;-60;101;-41;0;0;0;0;0
1587052499119;70;12;-58;-41;64;-23;0;0;0;0;0
1587052499121;79;23;-56;-51;68;-16;0;0;0;0;0
1587052499123;112;14;-98;-63;105;-42;0;0;0;0;0
1587052499125;133;-2;-135;-66;134;-68;0;0;0;0;0
1587052499127;143;5;-138;-74;141;-66;0;0;0;0;0
1587052499129;140;10;-130;-75;135;-60;0;0;0;0;0
1587052499131;157;-1;-158;-78;158;-79;0;0;0;0;0
1587052499133;169;-17;-186;-76;178;-101;0;0;0;0;0
1587052499135;140;-17;-157;-62;149;-87;0;0;0;0;0
1587052499137;109;-14;-123;-48;116;-68;0;0;0;0;0
1587052499139;138;-30;-168;-54;153;-99;0;0;0;0;0
1587052499141;187;-37;-224;-75;206;-130;0;0;0;0;0
1587052499143;185;-40;-225;-73;205;-132;0;0;0;0;0
1587052499145;153;-41;-194;-56;174;-117;0;0;0;0;0
1587052499147;120;-34;-154;-43;137;-94;0;0;0;0;0
1587052499149;95;-33;-128;-31;112;-80;0;0;0;0;0
1587052499151;63;-39;-102;-12;83;-70;0;0;0;0;0
1587052499153;32;-44;-76;6;54;-60;0;0;0;0;0
1587052499155;29;-45;-74;8;52;-59;0;0;0;0;0
1587052499157;45;-51;-96;3;71;-73;0;0;0;0;0
1587052499159;82;-63;-145;-10;114;-104;0;0;0;0;0
1587052499161;126;-63;-189;-32;158;-126;0;0;0;0;0
1587052499163;143;-47;-190;-48;167;-118;0;0;0;0;0
1587052499165;132;-40;-172;-46;152;-106;0;0;0;0;0
1587052499167;127;-57;-184;-35;156;-120;0;0;0;0;0
1587052499169;119;-68;-187;-26;153;-127;0;0;0;0;0
1587052499171;103;-63;-166;-20;135;-114;0;0;0;0;0
1587052499173;111;-54;-165;-29;138;-109;0;0;0;0;0
1587052499175;125;-58;-183;-34;154;-120;0;0;0;0;0
1587052499177;104;-73;-177;-16;141;-125;0;0;0;0;0
1587052499179;58;-75;-133;8;96;-104;0;0;0;0;0
1587052499181;45;-73;-118;14;82;-95;0;0;0;0;0
1587052499183;52;-84;-136;16;94;-110;0;0;0;0;0
1587052499185;82;-85;-167;1;125;-126;0;0;0;0;0
1587052499187;126;-68;-194;-29;160;-131;0;0;0;0;0
1587052499189;131;-58;-189;-37;160;-123;0;0;0;0;0
1587052499191;74;-53;-127;-11;101;-90;0;0;0;0;0
1587052499193;15;-43;-58;14;37;-50;0;0;0;0;0
1587052499195;12;-34;-46;11;29;-40;0;0;0;0;0
1587052499197;24;-31;-55;3;40;-43;0;0;0;0;0
1587052499199;26;-42;-68;8;47;-55;0;0;0;0;0
1587052499201;17;-58;-75;20;46;-66;0;0;0;0;0
1587052499203;14;-70;-84;28;49;-77;0;0;0;0;0
1587052499205;23;-75;-98;26;61;-86;0;0;0;0;0
1587052499207;19;-80;-99;30;59;-89;0;0;0;0;0
1587052499209;42;-83;-125;20;84;-104;0;0;0;0;0
1587052499211;74;-69;-143;-3;109;-106;0;0;0;0;0
1587052499213;76;-61;-137;-8;107;-99;0;0;0;0;0
1587052499215;80;-55;-135;-13;108;-95;0;0;0;0;0
1587052499217;75;-60;-135;-8;105;-97;0;0;0;0;0
1587052499219;68;-72;-140;2;104;-106;0;0;0;0;0
1587052499221;65;-87;-152;11;109;-119;0;0;0;0;0
1587052499223;44;-102;-146;29;95;-124;0;0;0;0;0
1587052499225;26;-108;-134;41;80;-121;0;0;0;0;0
1587052499227;22;-115;-137;46;80;-126;0;0;0;0;0
1587052499229;53;-112;-165;29;109;-138;0;0;0;0;0
1587052499231;98;-102;-200;2;149;-151;0;0;0;0;0
1587052499233;93;-97;-190;2;142;-143;0;0;0;0;0
1587052499235;83;-86;-169;1;126;-127;0;0;0;0;0
1587052499237;92;-66;-158;-13;125;-112;0;0;0;0;0
1587052499239;67;-52;-119;-8;93;-85;0;0;0;0;0
1587052499241;27;-32;-59;2;43;-45;0;0;0;0;0
1587052499243;79;14;-65;-47;72;-25;0;0;0;0;0
1587052499245;181;78;-103;-130;142;-12;0;0;0;0;0
1587052499247;251;161;-90;-206;171;36;0;0;0;0;0
1587052499249;329;247;-82;-288;206;83;0;0;0;0;0
1587052499251;375;322;-53;-349;214;135;0;0;0;0;0
1587052499253;379;402;23;-391;178;213;0;0;0;0;0
1587052499255;366;495;129;-431;119;312;0;0;0;0;0
1587052499257;316;575;259;-446;29;417;0;0;0;0;0
1587052499259;276;645;369;-461;-46;507;0;0;0;0;0
1587052499261;249;696;447;-473;-99;572;0;0;0;0;0
1587052499263;198;704;506;-451;-154;605;0;0;0;0;0
1587052499265;138;672;534;-405;-198;603;0;0;0;0;0
1587052499267;90;593;503;-342;-206;548;0;0;0;0;0
1587052499269;50;483;433;-267;-191;458;0;0;0;0;0
1587052499271;-7;359;366;-176;-186;363;0;0;0;0;0
1587052499273;-26;244;270;-109;-148;257;0;0;0;0;0
1587052499275;5;163;158;-84;-76;161;0;0;0;0;0
1587052499277;16;113;97;-65;-40;105;0;0;0;0;0
1587052499279;19;79;60;-49;-20;70;0;0;0;0;0
1587052499281;56;31;-25;-44;41;3;0;0;0;0;0
1587052499283;76;-10;-86;-33;81;-48;0;0;0;0;0
1587052499285;37;-32;-69;-3;53;-50;0;0;0;0;0
1587052499287;5;-55;-60;25;33;-57;0;0;0;0;0
1587052499289;9;-73;-82;32;46;-77;0;0;0;0;0
1587052499291;30;-88;-118;29;74;-103;0;0;0;0;0
1587052499293;44;-91;-135;23;90;-113;0;0;0;0;0
1587052499295;26;-78;-104;26;65;-91;0;0;0;0;0
1587052499297;-3;-49;-46;26;22;-47;0;0;0;0;0
1587052499299;4;-18;-22;7;13;-20;0;0;0;0;0
1587052499301;37;-19;-56;-9;47;-37;0;0;0;0;0
1587052499303;48;-33;-81;-8;65;-57;0;0;0;0;0
1587052499305;38;-31;-69;-4;54;-50;0;0;0;0;0
1587052499307;16;-30;-46;7;31;-38;0;0;0;0;0
1587052499309;20;-36;-56;8;38;-46;0;0;0;0;0
1587052499311;27;-43;-70;8;49;-56;0;0;0;0;0
1587052499313;-18;-42;-24;30;3;-33;0;0;0;0;0
1587052499315;-39;-44;-5;41;-17;-24;0;0;0;0;0
1587052499317;-6;-47;-41;26;18;-44;0;0;0;0;0
1587052499319;30;-48;-78;9;54;-63;0;0;0;0;0
1587052499321;42;-54;-96;6;69;-75;0;0;0;0;0
1587052499323;58;-62;-120;2;89;-91;0;0;0;0;0
1587052499325;93;-61;-154;-16;124;-107;0;0;0;0;0
1587052499327;115;-47;-162;-34;139;-104;0;0;0;0;0
1587052499329;90;-41;-131;-25;111;-86;0;0;0;0;0
1587052499331;51;-47;-98;-2;75;-72;0;0;0;0;0
1587052499333;54;-56;-110;1;82;-83;0;0;0;0;0
1587052499335;64;-63;-127;-1;96;-95;0;0;0;0;0
1587052499337;69;-65;-134;-2;102;-99;0;0;0;0;0
1587052499339;83;-58;-141;-13;112;-99;0;0;0;0;0
1587052499341;81;-43;-124;-19;103;-83;0;0;0;0;0
1587052499343;77;-29;-106;-24;92;-67;0;0;0;0;0
1587052499345;69;-25;-94;-22;82;-59;0;0;0;0;0
1587052499347;56;-30;-86;-13;71;-58;0;0;0;0;0
1587052499349;43;-28;-71;-8;57;-49;0;0;0;0;0
1587052499351;41;-25;-66;-8;54;-45;0;0;0;0;0
1587052499353;92;-48;-140;-22;116;-94;0;0;0;0;0
1587052499355;142;-65;-207;-39;175;-136;0;0;0;0;0
1587052499357;142;-64;-206;-39;174;-135;0;0;0;0;0
1587052499359;132;-57;-189;-38;161;-123;0;0;0;0;0
1587052499361;131;-48;-179;-42;155;-113;0;0;0;0;0
1587052499363;134;-45;-179;-45;157;-112;0;0;0;0;0
1587052499365;135;-42;-177;-47;156;-109;0;0;0;0;0
1587052499367;131;-31;-162;-50;147;-96;0;0;0;0;0
1587052499369;131;-26;-157;-53;144;-91;0;0;0;0;0
1587052499371;118;-40;-158;-39;138;-99;0;0;0;0;0
1587052499373;78;-54;-132;-12;105;-93;0;0;0;0;0
1587052499375;53;-55;-108;1;81;-81;0;0;0;0;0
1587052499377;39;-45;-84;3;62;-64;0;0;0;0;0
1587052499379;16;-40;-56;12;36;-48;0;0;0;0;0
1587052499381;12;-38;-50;13;31;-44;0;0;0;0;0
1587052499383;32;-28;-60;-2;46;-44;0;0;0;0;0
1587052499385;44;-28;-72;-8;58;-50;0;0;0;0;0
1587052499387;53;-24;-77;-15;65;-50;0;0;0;0;0
1587052499389;67;-10;-77;-29;72;-43;0;0;0;0;0
1587052499391;74;-20;-94;-27;84;-57;0;0;0;0;0
1587052499393;93;-11;-104;-41;99;-57;0;0;0;0;0
1587052499395;85;19;-66;-52;76;-23;0;0;0;0;0
1587052499397;63;12;-51;-38;57;-19;0;0;0;0;0
1587052499399;56;-11;-67;-23;62;-39;0;0;0;0;0
1587052499401;42;-24;-66;-9;54;-45;0;0;0;0;0
1587052499403;40;-27;-67;-7;54;-47;0;0;0;0;0
1587052499405;54;-37;-91;-9;73;-64;0;0;0;0;0
1587052499407;49;-40;-89;-5;69;-64;0;0;0;0;0
1587052499409;41;-18;-59;-12;50;-38;0;0;0;0;0
1587052499411;53;-7;-60;-23;57;-33;0;0;0;0;0
1587052499413;64;-20;-84;-22;74;-52;0;0;0;0;0
1587052499415;67;-30;-97;-19;82;-63;0;0;0;0;0
1587052499417;68;-36;-104;-16;86;-70;0;0;0;0;0
1587052499419;56;-34;-90;-11;73;-62;0;0;0;0;0
1587052499421;53;-23;-76;-15;65;-49;0;0;0;0;0
1587052499423;61;-21;-82;-20;72;-51;0;0;0;0;0
1587052499425;62;-25;-87;-19;75;-56;0;0;0;0;0
1587052499427;65;-10;-75;-28;70;-42;0;0;0;0;0
1587052499429;68;12;-56;-40;62;-22;0;0;0;0;0
1587052499431;63;6;-57;-35;60;-25;0;0;0;0;0
1587052499433;61;-10;-71;-26;66;-40;0;0;0;0;0
1587052499435;69;1;-68;-35;69;-33;0;0;0;0;0
1587052499437;72;3;-69;-38;71;-33;0;0;0;0;0
1587052499439;83;-8;-91;-38;87;-49;0;0;0;0;0
1587052499441;91;8;-83;-50;87;-37;0;0;0;0;0
1587052499443;67;17;-50;-42;59;-16;0;0;0;0;0
1587052499445;45;6;-39;-26;42;-16;0;0;0;0;0
1587052499447;60;0;-60;-30;60;-30;0;0;0;0;0
1587052499449;70;-10;-80;-30;75;-45;0;0;0;0;0
1587052499451;73;-18;-91;-28;82;-54;0;0;0;0;0
1587052499453;77;-9;-86;-34;82;-47;0;0;0;0;0
1587052499455;79;-8;-87;-36;83;-47;0;0;0;0;0
1587052499457;94;-15;-109;-40;102;-62;0;0;0;0;0
1587052499459;84;-12;-96;-36;90;-54;0;0;0;0;0
1587052499461;72;1;-71;-37;72;-35;0;0;0;0;0
1587052499463;59;-3;-62;-28;61;-32;0;0;0;0;0
1587052499465;58;-14;-72;-22;65;-43;0;0;0;0;0
1587052499467;70;-10;-80;-30;75;-45;0;0;0;0;0
1587052499469;72;-3;-75;-35;74;-39;0;0;0;0;0
1587052499471;91;11;-80;-51;86;-34;0;0;0;0;0
1587052499473;124;26;-98;-75;111;-36;0;0;0;0;0
1587052499475;119;42;-77;-81;98;-17;0;0;0;0;0
1587052499477;93;54;-39;-74;66;8;0;0;0;0;0
1587052499479;74;51;-23;-63;49;14;0;0;0;0;0
1587052499481;72;31;-41;-52;57;-5;0;0;0;0;0
1587052499483;84;15;-69;-50;77;-27;0;0;0;0;0
1587052499485;94;19;-75;-57;85;-28;0;0;0;0;0
1587052499487;94;37;-57;-66;76;-10;0;0;0;0;0
1587052499489;81;53;-28;-67;55;13;0;0;0;0;0
1587052499491;89;55;-34;-72;62;11;0;0;0;0;0
1587052499493;102;61;-41;-82;72;10;0;0;0;0;0
1587052499495;101;72;-29;-87;65;22;0;0;0;0;0
1587052499497;100;60;-40;-80;70;10;0;0;0;0;0
1587052499499;104;46;-58;-75;81;-6;0;0;0;0;0
1587052499501;115;55;-60;-85;88;-2;0;0;0;0;0
1587052499503;111;66;-45;-89;78;11;0;0;0;0;0
1587052499505;87;75;-12;-81;50;32;0;0;0;0;0
1587052499507;75;70;-5;-73;40;33;0;0;0;0;0
1587052499509;63;60;-3;-62;33;29;0;0;0;0;0
1587052499511;63;62;-1;-63;32;31;0;0;0;0;0
1587052499513;89;65;-24;-77;57;21;0;0;0;0;0
1587052499515;104;73;-31;-89;68;21;0;0;0;0;0
1587052499517;101;79;-22;-90;62;29;0;0;0;0;0
1587052499519;103;69;-34;-86;69;18;0;0;0;0;0
1587052499521;120;78;-42;-99;81;18;0;0;0;0;0
1587052499523;133;109;-24;-121;79;43;0;0;0;0;0
1587052499525;130;104;-26;-117;78;39;0;0;0;0;0
1587052499527;116;87;-29;-102;73;29;0;0;0;0;0
1587052499529;105;101;-4;-103;55;49;0;0;0;0;0
1587052499531;106;96;-10;-101;58;43;0;0;0;0;0
1587052499533;122;83;-39;-103;81;22;0;0;0;0;0
1587052499535;134;101;-33;-118;84;34;0;0;0;0;0
1587052499537;99;99;0;-99;50;50;0;0;0;0;0
1587052499539;65;86;21;-76;22;54;0;0;0;0;0
1587052499541;80;88;8;-84;36;48;0;0;0;0;0
1587052499543;83;78;-5;-81;44;37;0;0;0;0;0
1587052499545;79;71;-8;-75;44;32;0;0;0;0;0
1587052499547;84;68;-16;-76;50;26;0;0;0;0;0
1587052499549;75;60;-15;-68;45;23;0;0;0;0;0
1587052499551;59;55;-4;-57;32;26;0;0;0;0;0
1587052499553;74;50;-24;-62;49;13;0;0;0;0;0
1587052499555;106;48;-58;-77;82;-5;0;0;0;0;0
1587052499557;110;44;-66;-77;88;-11;0;0;0;0;0
1587052499559;89;51;-38;-70;64;7;0;0;0;0;0
1587052499561;45;54;9;-50;18;32;0;0;0;0;0
1587052499563;1;34;33;-18;-16;34;0;0;0;0;0
1587052499565;-15;34;49;-10;-32;42;0;0;0;0;0
1587052499567;-15;50;65;-18;-40;58;0;0;0;0;0
1587052499569;-11;46;57;-18;-34;52;0;0;0;0;0
1587052499571;-23;19;42;2;-32;31;0;0;0;0;0
1587052499573;-29;-4;25;16;-27;11;0;0;0;0;0
1587052499575;9;-8;-17;-1;13;-12;0;0;0;0;0
1587052499577;50;2;-48;-26;49;-23;0;0;0;0;0
1587052499579;67;17;-50;-42;59;-16;0;0;0;0;0
1587052499581;66;28;-38;-47;52;-5;0;0;0;0;0
1587052499583;33;16;-17;-25;25;0;0;0;0;0;0
1587052499585;-4;-8;-4;6;0;-6;0;0;0;0;0
1587052499587;-19;-15;4;17;-11;-5;0;0;0;0;0
1587052499589;-15;3;18;6;-16;11;0;0;0;0;0
1587052499591;1;14;13;-8;-6;14;0;0;0;0;0
1587052499593;5;2;-3;-4;4;0;0;0;0;0;0
1587052499595;-15;-2;13;8;-14;6;0;0;0;0;0
1587052499597;-24;-11;13;17;-18;1;0;0;0;0;0
1587052499599;-26;-35;-9;30;-8;-22;0;0;0;0;0
1587052499601;-43;-53;-10;48;-16;-31;0;0;0;0;0
1587052499603;-42;-49;-7;45;-17;-28;0;0;0;0;0
1587052499605;-19;-35;-16;27;-1;-25;0;0;0;0;0
1587052499607;-9;-14;-5;11;-2;-9;0;0;0;0;0
1587052499609;-8;34;42;-13;-25;38;0;0;0;0;0
1587052499611;-2;46;48;-22;-25;47;0;0;0;0;0
1587052499613;-1;1;2;0;-1;2;0;0;0;0;0
1587052499615;-10;-4;6;7;-8;1;0;0;0;0;0
1587052499617;-33;-5;28;19;-30;12;0;0;0;0;0
1587052499619;-50;-52;-2;51;-24;-27;0;0;0;0;0
1587052499621;-54;-76;-22;65;-16;-49;0;0;0;0;0
1587052499623;-46;-62;-16;54;-15;-39;0;0;0;0;0
1587052499625;-42;-47;-5;44;-18;-26;0;0;0;0;0
1587052499627;-26;-31;-5;28;-10;-18;0;0;0;0;0
1587052499629;-11;-19;-8;15;-1;-13;0;0;0;0;0
1587052499631;-43;-30;13;36;-28;-8;0;0;0;0;0
1587052499633;-57;-34;23;45;-40;-5;0;0;0;0;0
1587052499635;-48;-29;19;38;-33;-5;0;0;0;0;0
1587052499637;-50;-32;18;41;-34;-7;0;0;0;0;0
1587052499639;-48;-32;16;40;-32;-8;0;0;0;0;0
1587052499641;-63;-26;37;44;-50;6;0;0;0;0;0
1587052499643;-48;-31;17;39;-32;-7;0;0;0;0;0
1587052499645;-25;-40;-15;32;-5;-27;0;0;0;0;0
1587052499647;-42;-33;9;37;-25;-12;0;0;0;0;0
1587052499649;-38;-25;13;31;-25;-6;0;0;0;0;0
1587052499651;-39;-32;7;35;-23;-12;0;0;0;0;0
1587052499653;-40;-41;-1;40;-19;-21;0;0;0;0;0
1587052499655;-57;-41;16;49;-36;-12;0;0;0;0;0
1587052499657;-37;-39;-2;38;-17;-20;0;0;0;0;0
1587052499659;-23;-26;-3;24;-10;-14;0;0;0;0;0
1587052499661;-57;-11;46;34;-51;18;0;0;0;0;0
1587052499663;-62;-3;59;32;-60;28;0;0;0;0;0
1587052499665;-74;20;94;27;-84;57;0;0;0;0;0
1587052499667;-63;27;90;18;-76;59;0;0;0;0;0
1587052499669;-47;-15;32;31;-39;9;0;0;0;0;0
1587052499671;-41;-41;0;41;-20;-20;0;0;0;0;0
1587052499673;-52;-48;4;50;-28;-22;0;0;0;0;0
1587052499675;-84;-53;31;68;-57;-11;0;0;0;0;0
1587052499677;-113;-28;85;70;-99;29;0;0;0;0;0
1587052499679;-120;-8;112;64;-116;52;0;0;0;0;0
1587052499681;-89;-14;75;51;-82;31;0;0;0;0;0
1587052499683;-62;-29;33;45;-47;2;0;0;0;0;0
1587052499685;-73;-37;36;55;-54;0;0;0;0;0;0
1587052499687;-56;-37;19;46;-37;-9;0;0;0;0;0
1587052499689;-26;-28;-2;27;-12;-15;0;0;0;0;0
1587052499691;-20;-16;4;18;-12;-6;0;0;0;0;0
1587052499693;-29;-17;12;23;-20;-2;0;0;0;0;0
1587052499695;-44;-23;21;33;-32;-1;0;0;0;0;0
1587052499697;-47;-25;22;36;-34;-1;0;0;0;0;0
1587052499699;-50;-26;24;38;-37;-1;0;0;0;0;0
1587052499701;-44;-30;14;37;-29;-8;0;0;0;0;0
1587052499703;-28;-34;-6;31;-11;-20;0;0;0;0;0
1587052499705;-35;-28;7;31;-21;-10;0;0;0;0;0
1587052499707;-68;-23;45;45;-56;11;0;0;0;0;0
1587052499709;-101;-26;75;63;-88;25;0;0;0;0;0
1587052499711;-85;-30;55;57;-70;13;0;0;0;0;0
1587052499713;-62;-20;42;41;-52;11;0;0;0;0;0
1587052499715;-67;9;76;29;-71;43;0;0;0;0;0
1587052499717;-64;23;87;20;-75;55;0;0;0;0;0
1587052499719;-77;7;84;35;-80;46;0;0;0;0;0
1587052499721;-88;-16;72;52;-80;28;0;0;0;0;0
1587052499723;-90;-38;52;64;-71;7;0;0;0;0;0
1587052499725;-104;-40;64;72;-84;12;0;0;0;0;0
1587052499727;-102;-37;65;69;-83;14;0;0;0;0;0
1587052499729;-86;-36;50;61;-68;7;0;0;0;0;0
1587052499731;-63;-26;37;44;-50;6;0;0;0;0;0
1587052499733;-47;-33;14;40;-30;-9;0;0;0;0;0
1587052499735;-47;-38;9;42;-28;-14;0;0;0;0;0
1587052499737;-55;-27;28;41;-41;1;0;0;0;0;0
1587052499739;-78;-18;60;48;-69;21;0;0;0;0;0
1587052499741;-91;-21;70;56;-80;25;0;0;0;0;0
1587052499743;-70;-25;45;47;-57;10;0;0;0;0;0
1587052499745;-41;-25;16;33;-28;-4;0;0;0;0;0
1587052499747;-42;-26;16;34;-29;-5;0;0;0;0;0
1587052499749;-50;-27;23;38;-36;-2;0;0;0;0;0
1587052499751;-45;-28;17;36;-31;-5;0;0;0;0;0
1587052499753;-58;-39;19;48;-38;-10;0;0;0;0;0
1587052499755;-81;-43;38;62;-59;-2;0;0;0;0;0
1587052499757;-91;-36;55;63;-73;10;0;0;0;0;0
1587052499759;-94;-25;69;59;-81;22;0;0;0;0;0
1587052499761;-85;-22;63;53;-74;21;0;0;0;0;0
1587052499763;-81;-25;56;53;-68;16;0;0;0;0;0
1587052499765;-93;-32;61;62;-77;15;0;0;0;0;0
1587052499767;-92;-42;50;67;-71;4;0;0;0;0;0
1587052499769;-70;-45;25;57;-47;-10;0;0;0;0;0
1587052499771;-54;-29;25;41;-39;-2;0;0;0;0;0
1587052499773;-50;0;50;25;-50;25;0;0;0;0;0
1587052499775;-54;13;67;20;-60;40;0;0;0;0;0
1587052499777;-54;14;68;20;-61;41;0;0;0;0;0
1587052499779;-53;7;60;23;-56;34;0;0;0;0;0
1587052499781;-66;-17;49;41;-57;16;0;0;0;0;0
1587052499783;-84;-45;39;64;-61;-3;0;0;0;0;0
1587052499785;-82;-51;31;66;-56;-10;0;0;0;0;0
1587052499787;-69;-55;14;62;-41;-20;0;0;0;0;0
1587052499789;-84;-54;30;69;-57;-12;0;0;0;0;0
1587052499791;-81;-23;58;52;-69;18;0;0;0;0;0
1587052499793;-60;6;66;27;-63;36;0;0;0;0;0
1587052499795;-63;8;71;27;-67;40;0;0;0;0;0
1587052499797;-56;-2;54;29;-55;26;0;0;0;0;0
1587052499799;-53;-22;31;37;-42;5;0;0;0;0;0
1587052499801;-55;-47;8;51;-31;-19;0;0;0;0;0
1587052499803;-54;-48;6;51;-30;-21;0;0;0;0;0
1587052499805;-67;-34;33;50;-50;0;0;0;0;0;0
1587052499807;-77;-26;51;51;-64;13;0;0;0;0;0
1587052499809;-95;-38;57;66;-76;10;0;0;0;0;0
1587052499811;-100;-44;56;72;-78;6;0;0;0;0;0
1587052499813;-73;-25;48;49;-60;12;0;0;0;0;0
1587052499815;-60;-17;43;38;-51;13;0;0;0;0;0
1587052499817;-63;-24;39;43;-51;8;0;0;0;0;0
1587052499819;-68;-25;43;46;-55;9;0;0;0;0;0
1587052499821;-62;-21;41;41;-51;10;0;0;0;0;0
1587052499823;-66;-36;30;51;-48;-3;0;0;0;0;0
1587052499825;-88;-53;35;70;-61;-9;0;0;0;0;0
1587052499827;-99;-49;50;74;-74;1;0;0;0;0;0
1587052499829;-100;-30;70;65;-85;20;0;0;0;0;0
1587052499831;-96;-18;78;57;-87;30;0;0;0;0;0
1587052499833;-81;-35;46;58;-63;6;0;0;0;0;0
1587052499835;-64;-41;23;52;-43;-9;0;0;0;0;0
1587052499837;-48;-28;20;38;-34;-4;0;0;0;0;0
1587052499839;-35;-17;18;26;-26;1;0;0;0;0;0
1587052499841;-43;-23;20;33;-31;-1;0;0;0;0;0
1587052499843;-43;-31;12;37;-27;-9;0;0;0;0;0
1587052499845;-29;-30;-1;29;-14;-15;0;0;0;0;0
1587052499847;-38;-29;9;33;-23;-10;0;0;0;0;0
1587052499849;-53;-29;24;41;-38;-2;0;0;0;0;0
1587052499851;-51;-41;10;46;-30;-15;0;0;0;0;0
1587052499853;-30;-42;-12;36;-9;-27;0;0;0;0;0
1587052499855;-18;-23;-5;20;-6;-14;0;0;0;0;0
1587052499857;-31;-13;18;22;-24;3;0;0;0;0;0
1587052499859;-48;-23;25;35;-36;1;0;0;0;0;0
1587052499861;-64;-36;28;50;-46;-4;0;0;0;0;0
1587052499863;-65;-46;19;55;-42;-13;0;0;0;0;0
1587052499865;-58;-41;17;49;-37;-12;0;0;0;0;0
1587052499867;-62;-27;35;44;-48;4;0;0;0;0;0
1587052499869;-63;-18;45;40;-54;14;0;0;0;0;0
1587052499871;-63;-15;48;39;-55;17;0;0;0;0;0
1587052499873;-80;-22;58;51;-69;18;0;0;0;0;0
1587052499875;-103;-28;75;65;-89;24;0;0;0;0;0
1587052499877;-112;-44;68;78;-90;12;0;0;0;0;0
1587052499879;-98;-48;50;73;-74;1;0;0;0;0;0
1587052499881;-82;-41;41;61;-61;0;0;0;0;0;0
1587052499883;-77;-41;36;59;-56;-2;0;0;0;0;0
1587052499885;-69;-29;40;49;-54;6;0;0;0;0;0
1587052499887;-65;-2;63;33;-64;31;0;0;0;0;0
1587052499889;-60;15;75;22;-67;45;0;0;0;0;0
1587052499891;-58;3;61;27;-59;32;0;0;0;0;0
1587052499893;-54;-8;46;31;-50;19;0;0;0;0;0
1587052499895;-70;-27;43;48;-56;8;0;0;0;0;0
1587052499897;-94;-53;41;73;-67;-6;0;0;0;0;0
1587052499899;-76;-52;24;64;-50;-14;0;0;0;0;0
1587052499901;-46;-34;12;40;-29;-11;0;0;0;0;0
1587052499903;-44;-20;24;32;-34;2;0;0;0;0;0
1587052499905;-57;-16;41;36;-49;13;0;0;0;0;0
1587052499907;-67;-8;59;37;-63;26;0;0;0;0;0
1587052499909;-58;3;61;27;-59;32;0;0;0;0;0
1587052499911;-20;12;32;4;-26;22;0;0;0;0;0
1587052499913;12;12;0;-12;6;6;0;0;0;0;0
1587052499915;12;14;2;-13;5;8;0;0;0;0;0
1587052499917;-8;37;45;-15;-26;41;0;0;0;0;0
1587052499919;-6;42;48;-18;-27;45;0;0;0;0;0
1587052499921;-1;21;22;-10;-11;22;0;0;0;0;0
1587052499923;-17;30;47;-7;-32;39;0;0;0;0;0
1587052499925;-26;48;74;-11;-50;61;0;0;0;0;0
1587052499927;-21;25;46;-2;-33;36;0;0;0;0;0
1587052499929;-6;3;9;1;-7;6;0;0;0;0;0
1587052499931;-13;8;21;2;-17;15;0;0;0;0;0
1587052499933;-41;13;54;14;-47;34;0;0;0;0;0
1587052499935;-59;0;59;29;-59;30;0;0;0;0;0
1587052499937;-53;-9;44;31;-48;18;0;0;0;0;0
1587052499939;-30;0;30;15;-30;15;0;0;0;0;0
1587052499941;-17;7;24;5;-20;16;0;0;0;0;0
1587052499943;-18;-4;14;11;-16;5;0;0;0;0;0
1587052499945;-18;-34;-16;26;-1;-25;0;0;0;0;0
1587052499947;-17;-31;-14;24;-1;-22;0;0;0;0;0
1587052499949;-12;12;24;0;-18;18;0;0;0;0;0
1587052499951;4;33;29;-19;-12;31;0;0;0;0;0
1587052499953;26;12;-14;-19;20;-1;0;0;0;0;0
1587052499955;45;-17;-62;-14;54;-39;0;0;0;0;0
1587052499957;41;-33;-74;-4;58;-53;0;0;0;0;0
1587052499959;-1;-34;-33;17;16;-33;0;0;0;0;0
1587052499961;-38;-35;3;36;-20;-16;0;0;0;0;0
1587052499963;-43;-39;4;41;-23;-17;0;0;0;0;0
1587052499965;-26;-36;-10;31;-8;-23;0;0;0;0;0
1587052499967;-6;-36;-30;21;12;-33;0;0;0;0;0
1587052499969;8;-37;-45;14;27;-41;0;0;0;0;0
1587052499971;5;-42;-47;18;26;-44;0;0;0;0;0
1587052499973;-18;-60;-42;39;12;-51;0;0;0;0;0
1587052499975;-48;-63;-15;55;-16;-39;0;0;0;0;0
1587052499977;-58;-53;5;55;-31;-24;0;0;0;0;0
1587052499979;-31;-54;-23;42;-4;-38;0;0;0;0;0
1587052499981;-19;-52;-33;35;7;-42;0;0;0;0;0
1587052499983;-23;-40;-17;31;-3;-28;0;0;0;0;0
1587052499985;-18;-37;-19;27;1;-28;0;0;0;0;0
1587052499987;-11;-36;-25;23;7;-30;0;0;0;0;0
1587052499989;3;-21;-24;9;14;-22;0;0;0;0;0
1587052499991;-11;-23;-12;17;1;-17;0;0;0;0;0
1587052499993;-16;-52;-36;34;10;-44;0;0;0;0;0
1587052499995;4;-72;-76;34;40;-74;0;0;0;0;0
1587052499997;-3;-59;-56;31;27;-57;0;0;0;0;0
1587052499999;-6;-36;-30;21;12;-33;0;0;0;0;0
1587052500001;7;-35;-42;14;25;-38;0;0;0;0;0
1587052500003;4;-35;-39;15;22;-37;0;0;0;0;0
1587052500005;-2;-39;-37;20;18;-38;0;0;0;0;0
1587052500007;-7;-44;-37;25;15;-40;0;0;0;0;0
1587052500009;-6;-35;-29;20;12;-32;0;0;0;0;0
1587052500011;0;-47;-47;23;24;-47;0;0;0;0;0
1587052500013;-4;-72;-68;38;32;-70;0;0;0;0;0
1587052500015;3;-79;-82;38;43;-80;0;0;0;0;0
1587052500017;8;-75;-83;33;46;-79;0;0;0;0;0
1587052500019;4;-65;-69;30;37;-67;0;0;0;0;0
1587052500021;8;-57;-65;24;37;-61;0;0;0;0;0
1587052500023;18;-43;-61;12;40;-52;0;0;0;0;0
1587052500025;25;-46;-71;10;48;-58;0;0;0;0;0
1587052500027;20;-69;-89;24;55;-79;0;0;0;0;0
1587052500029;7;-77;-84;35;46;-80;0;0;0;0;0
1587052500031;-14;-76;-62;45;24;-69;0;0;0;0;0
1587052500033;-33;-86;-53;59;10;-69;0;0;0;0;0
1587052500035;-30;-105;-75;67;23;-90;0;0;0;0;0
1587052500037;-11;-105;-94;58;42;-99;0;0;0;0;0
1587052500039;5;-108;-113;51;59;-110;0;0;0;0;0
1587052500041;2;-117;-119;57;61;-118;0;0;0;0;0
1587052500043;-16;-80;-64;48;24;-72;0;0;0;0;0
1587052500045;-25;-38;-13;31;-6;-25;0;0;0;0;0
1587052500047;-19;-54;-35;36;8;-44;0;0;0;0;0
1587052500049;7;-69;-76;31;42;-72;0;0;0;0;0
1587052500051;46;-46;-92;0;69;-69;0;0;0;0;0
1587052500053;95;-17;-112;-39;104;-64;0;0;0;0;0
1587052500055;123;22;-101;-73;112;-39;0;0;0;0;0
1587052500057;150;97;-53;-124;102;22;0;0;0;0;0
1587052500059;191;193;2;-192;95;98;0;0;0;0;0
1587052500061;196;278;82;-237;57;180;0;0;0;0;0
1587052500063;212;342;130;-277;41;236;0;0;0;0;0
1587052500065;224;416;192;-320;16;304;0;0;0;0;0
1587052500067;210;503;293;-357;-41;398;0;0;0;0;0
1587052500069;178;579;401;-379;-111;490;0;0;0;0;0
1587052500071;136;644;508;-390;-186;576;0;0;0;0;0
1587052500073;101;666;565;-384;-232;616;0;0;0;0;0
1587052500075;57;647;590;-352;-266;619;0;0;0;0;0
1587052500077;0;605;605;-303;-302;605;0;0;0;0;0
1587052500079;-52;540;592;-244;-322;566;0;0;0;0;0
1587052500081;-63;450;513;-194;-288;482;0;0;0;0;0
1587052500083;-47;349;396;-151;-221;373;0;0;0;0;0
1587052500085;-48;254;302;-103;-175;278;0;0;0;0;0
1587052500087;-90;151;241;-31;-165;196;0;0;0;0;0
1587052500089;-113;68;181;22;-147;125;0;0;0;0;0
