time;Ecg1;Ecg2;Ecg3;Ecg5;Ecg6;Ecg7;Ecg8;Ecg9;Ecg10;Ecg11;Ecg12
1587045289000;24;-20;-44;-2;34;-32;0;0;0;0;0
1587045289002;5;1;-4;-3;5;-1;0;0;0;0;0
1587045289004;-21;34;55;-7;-38;45;0;0;0;0;0
1587045289006;-47;22;69;12;-58;46;0;0;0;0;0
1587045289008;-41;-9;32;25;-36;12;0;0;0;0;0
1587045289010;-23;-18;5;20;-14;-6;0;0;0;0;0
1587045289012;-8;-40;-32;24;12;-36;0;0;0;0;0
1587045289014;14;-34;-48;10;31;-41;0;0;0;0;0
1587045289016;9;-15;-24;3;17;-19;0;0;0;0;0
1587045289018;-11;-21;-10;16;0;-15;0;0;0;0;0
1587045289020;-7;-22;-15;14;4;-18;0;0;0;0;0
1587045289022;0;-12;-12;6;6;-12;0;0;0;0;0
1587045289024;-7;-6;1;6;-4;-2;0;0;0;0;0
1587045289026;-9;-11;-2;10;-3;-6;0;0;0;0;0
1587045289028;0;16;16;-8;-8;16;0;0;0;0;0
1587045289030;0;70;70;-35;-35;70;0;0;0;0;0
1587045289032;2;48;46;-25;-22;47;0;0;0;0;0
1587045289034;-1;-19;-18;10;9;-18;0;0;0;0;0
1587045289036;-15;-23;-8;19;-3;-15;0;0;0;0;0
1587045289038;-22;-11;11;16;-16;0;0;0;0;0;0
1587045289040;-24;-28;-4;26;-10;-16;0;0;0;0;0
1587045289042;-18;-35;-17;26;0;-26;0;0;0;0;0
1587045289044;-15;-34;-19;24;2;-26;0;0;0;0;0
1587045289046;-24;-34;-10;29;-7;-22;0;0;0;0;0
1587045289048;-12;-25;-13;18;1;-19;0;0;0;0;0
1587045289050;27;-11;-38;-8;33;-24;0;0;0;0;0
1587045289052;45;-6;-51;-20;48;-28;0;0;0;0;0
1587045289054;28;-12;-40;-8;34;-26;0;0;0;0;0
1587045289056;3;-27;-30;12;17;-28;0;0;0;0;0
1587045289058;-20;-30;-10;25;-5;-20;0;0;0;0;0
1587045289060;-25;-14;11;19;-18;-1;0;0;0;0;0
1587045289062;-16;-8;8;12;-12;0;0;0;0;0;0
1587045289064;-8;-2;6;5;-7;2;0;0;0;0;0
1587045289066;5;21;16;-13;-5;19;0;0;0;0;0
1587045289068;2;28;26;-15;-12;27;0;0;0;0;0
1587045289070;-19;13;32;3;-25;23;0;0;0;0;0
1587045289072;-27;-2;25;14;-26;12;0;0;0;0;0
1587045289074;-18;-9;9;13;-13;0;0;0;0;0;0
1587045289076;-15;-3;12;9;-13;5;0;0;0;0;0
1587045289078;-18;-3;15;10;-16;6;0;0;0;0;0
1587045289080;-22;-23;-1;22;-10;-12;0;0;0;0;0
1587045289082;-21;-18;3;19;-12;-7;0;0;0;0;0
1587045289084;-10;15;25;-3;-17;20;0;0;0;0;0
1587045289086;12;28;16;-20;-2;22;0;0;0;0;0
1587045289088;29;19;-10;-24;20;5;0;0;0;0;0
1587045289090;13;4;-9;-9;11;-2;0;0;0;0;0
1587045289092;-18;-14;4;16;-11;-5;0;0;0;0;0
1587045289094;-28;-13;15;20;-21;1;0;0;0;0;0
1587045289096;-21;6;27;7;-24;17;0;0;0;0;0
1587045289098;-15;7;22;4;-18;15;0;0;0;0;0
1587045289100;-2;0;2;1;-2;1;0;0;0;0;0
1587045289102;23;9;-14;-16;19;-2;0;0;0;0;0
1587045289104;40;16;-24;-28;32;-4;0;0;0;0;0
1587045289106;26;15;-11;-21;19;2;0;0;0;0;0
1587045289108;3;36;33;-20;-15;35;0;0;0;0;0
1587045289110;-6;73;79;-34;-42;76;0;0;0;0;0
1587045289112;-11;73;84;-31;-47;79;0;0;0;0;0
1587045289114;-14;36;50;-11;-32;43;0;0;0;0;0
1587045289116;-5;23;28;-9;-16;26;0;0;0;0;0
1587045289118;7;34;27;-21;-10;31;0;0;0;0;0
1587045289120;8;34;26;-21;-9;30;0;0;0;0;0
1587045289122;18;65;47;-42;-14;56;0;0;0;0;0
1587045289124;19;83;64;-51;-22;74;0;0;0;0;0
1587045289126;4;64;60;-34;-28;62;0;0;0;0;0
1587045289128;7;62;55;-35;-24;59;0;0;0;0;0
1587045289130;24;72;48;-48;-12;60;0;0;0;0;0
1587045289132;28;57;29;-43;0;43;0;0;0;0;0
1587045289134;13;37;24;-25;-5;31;0;0;0;0;0
1587045289136;-1;40;41;-20;-21;41;0;0;0;0;0
1587045289138;0;44;44;-22;-22;44;0;0;0;0;0
1587045289140;18;41;23;-30;-2;32;0;0;0;0;0
1587045289142;31;18;-13;-25;22;3;0;0;0;0;0
1587045289144;25;0;-25;-13;25;-12;0;0;0;0;0
1587045289146;35;-1;-36;-17;36;-18;0;0;0;0;0
1587045289148;52;15;-37;-34;45;-11;0;0;0;0;0
1587045289150;31;34;3;-33;14;19;0;0;0;0;0
1587045289152;-8;36;44;-14;-26;40;0;0;0;0;0
1587045289154;-16;41;57;-13;-36;49;0;0;0;0;0
1587045289156;-9;44;53;-18;-31;49;0;0;0;0;0
1587045289158;-14;37;51;-12;-32;44;0;0;0;0;0
1587045289160;-13;39;52;-13;-32;46;0;0;0;0;0
1587045289162;-5;41;46;-18;-25;44;0;0;0;0;0
1587045289164;-7;31;38;-12;-22;35;0;0;0;0;0
1587045289166;-4;7;11;-2;-7;9;0;0;0;0;0
1587045289168;5;-24;-29;9;17;-26;0;0;0;0;0
1587045289170;1;-50;-51;24;26;-50;0;0;0;0;0
1587045289172;-3;-63;-60;33;29;-61;0;0;0;0;0
1587045289174;-15;-32;-17;23;1;-24;0;0;0;0;0
1587045289176;-41;14;55;13;-48;35;0;0;0;0;0
1587045289178;-46;30;76;8;-61;53;0;0;0;0;0
1587045289180;-37;20;57;8;-47;39;0;0;0;0;0
1587045289182;-37;5;42;16;-39;24;0;0;0;0;0
1587045289184;-45;1;46;22;-45;24;0;0;0;0;0
1587045289186;-37;7;44;15;-40;26;0;0;0;0;0
1587045289188;-17;6;23;5;-20;15;0;0;0;0;0
1587045289190;-2;-19;-17;10;8;-18;0;0;0;0;0
1587045289192;14;-28;-42;7;28;-35;0;0;0;0;0
1587045289194;16;-18;-34;1;25;-26;0;0;0;0;0
1587045289196;-2;-15;-13;8;6;-14;0;0;0;0;0
1587045289198;-10;-11;-1;10;-4;-6;0;0;0;0;0
1587045289200;-7;-17;-10;12;2;-13;0;0;0;0;0
1587045289202;-10;-22;-12;16;1;-17;0;0;0;0;0
1587045289204;-6;-6;0;6;-3;-3;0;0;0;0;0
1587045289206;-10;-17;-7;13;-1;-12;0;0;0;0;0
1587045289208;-21;-33;-12;27;-4;-22;0;0;0;0;0
1587045289210;-24;-32;-8;28;-8;-20;0;0;0;0;0
1587045289212;-28;-26;2;27;-15;-12;0;0;0;0;0
1587045289214;-19;-6;13;12;-16;4;0;0;0;0;0
1587045289216;-17;3;20;7;-18;12;0;0;0;0;0
1587045289218;-26;3;29;11;-27;16;0;0;0;0;0
1587045289220;-27;-5;22;16;-24;9;0;0;0;0;0
1587045289222;-27;-24;3;25;-15;-10;0;0;0;0;0
1587045289224;-29;-28;1;28;-15;-13;0;0;0;0;0
1587045289226;-31;-22;9;26;-20;-6;0;0;0;0;0
1587045289228;-28;-24;4;26;-16;-10;0;0;0;0;0
1587045289230;-13;-36;-23;24;5;-29;0;0;0;0;0
1587045289232;-1;-40;-39;20;19;-39;0;0;0;0;0
1587045289234;-4;-27;-23;15;10;-25;0;0;0;0;0
1587045289236;-23;-39;-16;31;-3;-27;0;0;0;0;0
1587045289238;-43;-70;-27;56;-8;-48;0;0;0;0;0
1587045289240;-52;-91;-39;71;-6;-65;0;0;0;0;0
1587045289242;-60;-98;-38;79;-11;-68;0;0;0;0;0
1587045289244;-70;-95;-25;82;-22;-60;0;0;0;0;0
1587045289246;-50;-84;-34;67;-8;-59;0;0;0;0;0
1587045289248;-6;-60;-54;33;24;-57;0;0;0;0;0
1587045289250;23;-43;-66;10;45;-54;0;0;0;0;0
1587045289252;56;-9;-65;-24;61;-37;0;0;0;0;0
1587045289254;97;40;-57;-69;77;-8;0;0;0;0;0
1587045289256;141;101;-40;-121;91;31;0;0;0;0;0
1587045289258;187;190;3;-189;92;97;0;0;0;0;0
1587045289260;207;266;59;-237;74;163;0;0;0;0;0
1587045289262;198;318;120;-258;39;219;0;0;0;0;0
1587045289264;180;394;214;-287;-17;304;0;0;0;0;0
1587045289266;160;467;307;-314;-73;387;0;0;0;0;0
1587045289268;148;532;384;-340;-118;458;0;0;0;0;0
1587045289270;126;605;479;-366;-176;542;0;0;0;0;0
1587045289272;81;643;562;-362;-240;603;0;0;0;0;0
1587045289274;42;667;625;-355;-291;646;0;0;0;0;0
1587045289276;-8;663;671;-328;-339;667;0;0;0;0;0
1587045289278;-49;592;641;-272;-345;617;0;0;0;0;0
1587045289280;-67;460;527;-197;-297;494;0;0;0;0;0
1587045289282;-84;314;398;-115;-241;356;0;0;0;0;0
1587045289284;-76;219;295;-72;-185;257;0;0;0;0;0
1587045289286;-69;162;231;-47;-150;197;0;0;0;0;0
1587045289288;-75;95;170;-10;-122;133;0;0;0;0;0
1587045289290;-79;36;115;21;-97;76;0;0;0;0;0
1587045289292;-74;23;97;25;-85;60;0;0;0;0;0
1587045289294;-70;16;86;27;-78;51;0;0;0;0;0
1587045289296;-79;2;81;38;-80;42;0;0;0;0;0
1587045289298;-77;-14;63;45;-70;25;0;0;0;0;0
1587045289300;-61;-31;30;46;-45;0;0;0;0;0;0
1587045289302;-49;-35;14;42;-31;-10;0;0;0;0;0
1587045289304;-38;-32;6;35;-22;-13;0;0;0;0;0
1587045289306;-25;-29;-4;27;-10;-16;0;0;0;0;0
1587045289308;-25;-26;-1;25;-12;-13;0;0;0;0;0
1587045289310;-24;4;28;10;-26;16;0;0;0;0;0
1587045289312;-17;18;35;-1;-26;27;0;0;0;0;0
1587045289314;-16;-9;7;12;-11;-1;0;0;0;0;0
1587045289316;-27;-22;5;24;-16;-8;0;0;0;0;0
1587045289318;-34;-24;10;29;-22;-7;0;0;0;0;0
1587045289320;-15;-7;8;11;-11;1;0;0;0;0;0
1587045289322;-5;19;24;-7;-14;22;0;0;0;0;0
1587045289324;-6;16;22;-5;-14;19;0;0;0;0;0
1587045289326;-7;-21;-14;14;4;-17;0;0;0;0;0
1587045289328;-6;-54;-48;30;21;-51;0;0;0;0;0
1587045289330;3;-49;-52;23;28;-50;0;0;0;0;0
1587045289332;8;-37;-45;14;27;-41;0;0;0;0;0
1587045289334;11;-28;-39;8;25;-33;0;0;0;0;0
1587045289336;12;-20;-32;4;22;-26;0;0;0;0;0
1587045289338;6;-28;-34;11;20;-31;0;0;0;0;0
1587045289340;-3;-54;-51;28;24;-52;0;0;0;0;0
1587045289342;-2;-56;-54;29;26;-55;0;0;0;0;0
1587045289344;9;-40;-49;15;29;-44;0;0;0;0;0
1587045289346;12;-33;-45;10;29;-39;0;0;0;0;0
1587045289348;8;-12;-20;2;14;-16;0;0;0;0;0
1587045289350;4;-2;-6;-1;5;-4;0;0;0;0;0
1587045289352;1;-16;-17;7;9;-16;0;0;0;0;0
1587045289354;2;-30;-32;14;17;-31;0;0;0;0;0
1587045289356;1;-45;-46;22;24;-45;0;0;0;0;0
1587045289358;-11;-38;-27;24;8;-32;0;0;0;0;0
1587045289360;-10;-13;-3;11;-3;-8;0;0;0;0;0
1587045289362;3;-6;-9;1;6;-7;0;0;0;0;0
1587045289364;6;-25;-31;9;19;-28;0;0;0;0;0
1587045289366;13;-27;-40;7;27;-33;0;0;0;0;0
1587045289368;18;-14;-32;-2;25;-23;0;0;0;0;0
1587045289370;16;-15;-31;-1;24;-23;0;0;0;0;0
1587045289372;17;-10;-27;-4;22;-18;0;0;0;0;0
1587045289374;17;-5;-22;-6;20;-13;0;0;0;0;0
1587045289376;12;1;-11;-7;12;-5;0;0;0;0;0
1587045289378;4;16;12;-10;-4;14;0;0;0;0;0
1587045289380;7;21;14;-14;-3;18;0;0;0;0;0
1587045289382;13;0;-13;-7;13;-6;0;0;0;0;0
1587045289384;13;-31;-44;9;29;-37;0;0;0;0;0
1587045289386;17;-32;-49;7;33;-40;0;0;0;0;0
1587045289388;21;-6;-27;-8;24;-16;0;0;0;0;0
1587045289390;23;13;-10;-18;17;2;0;0;0;0;0
1587045289392;25;15;-10;-20;18;3;0;0;0;0;0
1587045289394;28;7;-21;-18;25;-7;0;0;0;0;0
1587045289396;28;-6;-34;-11;31;-20;0;0;0;0;0
1587045289398;20;-25;-45;2;33;-35;0;0;0;0;0
1587045289400;20;-18;-38;-1;29;-28;0;0;0;0;0
1587045289402;26;3;-23;-15;25;-10;0;0;0;0;0
1587045289404;25;10;-15;-18;20;-2;0;0;0;0;0
1587045289406;27;7;-20;-17;24;-6;0;0;0;0;0
1587045289408;36;14;-22;-25;29;-4;0;0;0;0;0
1587045289410;36;13;-23;-25;30;-5;0;0;0;0;0
1587045289412;27;-4;-31;-12;29;-17;0;0;0;0;0
1587045289414;26;-12;-38;-7;32;-25;0;0;0;0;0
1587045289416;30;-7;-37;-12;34;-22;0;0;0;0;0
1587045289418;28;-3;-31;-13;30;-17;0;0;0;0;0
1587045289420;30;-4;-34;-13;32;-19;0;0;0;0;0
1587045289422;32;-3;-35;-15;34;-19;0;0;0;0;0
1587045289424;31;-12;-43;-10;37;-27;0;0;0;0;0
1587045289426;36;-15;-51;-11;44;-33;0;0;0;0;0
1587045289428;38;2;-36;-20;37;-17;0;0;0;0;0
1587045289430;42;35;-7;-39;25;14;0;0;0;0;0
1587045289432;41;50;9;-46;16;30;0;0;0;0;0
1587045289434;26;27;1;-27;13;14;0;0;0;0;0
1587045289436;18;12;-6;-15;12;3;0;0;0;0;0
1587045289438;19;9;-10;-14;15;0;0;0;0;0;0
1587045289440;23;1;-22;-12;23;-10;0;0;0;0;0
1587045289442;28;15;-13;-22;21;1;0;0;0;0;0
1587045289444;27;27;0;-27;14;14;0;0;0;0;0
1587045289446;26;10;-16;-18;21;-3;0;0;0;0;0
1587045289448;30;-9;-39;-11;35;-24;0;0;0;0;0
1587045289450;24;-20;-44;-2;34;-32;0;0;0;0;0
1587045289452;16;-14;-30;-1;23;-22;0;0;0;0;0
1587045289454;22;31;9;-27;7;20;0;0;0;0;0
1587045289456;29;59;30;-44;0;45;0;0;0;0;0
1587045289458;30;29;-1;-30;16;14;0;0;0;0;0
1587045289460;30;16;-14;-23;22;1;0;0;0;0;0
1587045289462;37;41;4;-39;17;23;0;0;0;0;0
1587045289464;47;67;20;-57;14;44;0;0;0;0;0
1587045289466;52;64;12;-58;20;38;0;0;0;0;0
1587045289468;49;35;-14;-42;32;11;0;0;0;0;0
1587045289470;35;-4;-39;-16;37;-21;0;0;0;0;0
1587045289472;34;-13;-47;-11;41;-30;0;0;0;0;0
1587045289474;47;25;-22;-36;35;2;0;0;0;0;0
1587045289476;47;21;-26;-34;37;-2;0;0;0;0;0
1587045289478;40;11;-29;-26;35;-9;0;0;0;0;0
1587045289480;47;30;-17;-39;32;7;0;0;0;0;0
1587045289482;52;40;-12;-46;32;14;0;0;0;0;0
1587045289484;49;33;-16;-41;33;9;0;0;0;0;0
1587045289486;48;38;-10;-43;29;14;0;0;0;0;0
1587045289488;40;41;1;-41;20;21;0;0;0;0;0
1587045289490;36;28;-8;-32;22;10;0;0;0;0;0
1587045289492;52;35;-17;-44;35;9;0;0;0;0;0
1587045289494;63;47;-16;-55;40;16;0;0;0;0;0
1587045289496;61;61;0;-61;31;31;0;0;0;0;0
1587045289498;63;73;10;-68;27;42;0;0;0;0;0
1587045289500;68;79;11;-74;29;45;0;0;0;0;0
1587045289502;65;85;20;-75;23;53;0;0;0;0;0
1587045289504;73;95;22;-84;26;59;0;0;0;0;0
1587045289506;78;96;18;-87;30;57;0;0;0;0;0
1587045289508;67;79;12;-73;28;46;0;0;0;0;0
1587045289510;67;87;20;-77;24;54;0;0;0;0;0
1587045289512;78;89;11;-84;34;50;0;0;0;0;0
1587045289514;84;69;-15;-77;50;27;0;0;0;0;0
1587045289516;73;62;-11;-68;42;26;0;0;0;0;0
1587045289518;66;78;12;-72;27;45;0;0;0;0;0
1587045289520;75;114;39;-95;18;77;0;0;0;0;0
1587045289522;66;101;35;-84;16;68;0;0;0;0;0
1587045289524;54;97;43;-76;6;70;0;0;0;0;0
1587045289526;63;121;58;-92;3;90;0;0;0;0;0
1587045289528;73;125;52;-99;11;89;0;0;0;0;0
1587045289530;77;132;55;-105;11;94;0;0;0;0;0
1587045289532;80;133;53;-107;14;93;0;0;0;0;0
1587045289534;74;111;37;-93;19;74;0;0;0;0;0
1587045289536;64;119;55;-92;5;87;0;0;0;0;0
1587045289538;70;141;71;-106;0;106;0;0;0;0;0
1587045289540;82;130;48;-106;17;89;0;0;0;0;0
1587045289542;86;124;38;-105;24;81;0;0;0;0;0
1587045289544;80;134;54;-107;13;94;0;0;0;0;0
1587045289546;86;134;48;-110;19;91;0;0;0;0;0
1587045289548;100;114;14;-107;43;64;0;0;0;0;0
1587045289550;90;111;21;-101;35;66;0;0;0;0;0
1587045289552;70;133;63;-102;4;98;0;0;0;0;0
1587045289554;58;146;88;-102;-15;117;0;0;0;0;0
1587045289556;58;147;89;-103;-15;118;0;0;0;0;0
1587045289558;69;129;60;-99;5;95;0;0;0;0;0
1587045289560;78;95;17;-87;31;56;0;0;0;0;0
1587045289562;86;90;4;-88;41;47;0;0;0;0;0
1587045289564;74;94;20;-84;27;57;0;0;0;0;0
1587045289566;49;87;38;-68;6;63;0;0;0;0;0
1587045289568;40;84;44;-62;-2;64;0;0;0;0;0
1587045289570;37;84;47;-61;-5;66;0;0;0;0;0
1587045289572;29;80;51;-55;-11;66;0;0;0;0;0
1587045289574;25;67;42;-46;-8;55;0;0;0;0;0
1587045289576;27;43;16;-35;6;30;0;0;0;0;0
1587045289578;27;48;21;-38;3;35;0;0;0;0;0
1587045289580;16;76;60;-46;-22;68;0;0;0;0;0
1587045289582;11;64;53;-38;-21;59;0;0;0;0;0
1587045289584;13;20;7;-17;3;14;0;0;0;0;0
1587045289586;11;2;-9;-7;10;-3;0;0;0;0;0
1587045289588;7;29;22;-18;-7;26;0;0;0;0;0
1587045289590;-2;55;57;-27;-29;56;0;0;0;0;0
1587045289592;-4;62;66;-29;-35;64;0;0;0;0;0
1587045289594;2;53;51;-28;-24;52;0;0;0;0;0
1587045289596;2;38;36;-20;-17;37;0;0;0;0;0
1587045289598;-7;15;22;-4;-14;19;0;0;0;0;0
1587045289600;-18;-19;-1;18;-8;-10;0;0;0;0;0
1587045289602;-14;-33;-19;23;3;-26;0;0;0;0;0
1587045289604;2;-21;-23;9;13;-22;0;0;0;0;0
1587045289606;5;-21;-26;8;16;-23;0;0;0;0;0
1587045289608;-3;-26;-23;14;10;-24;0;0;0;0;0
1587045289610;-12;-27;-15;19;2;-21;0;0;0;0;0
1587045289612;-18;-35;-17;26;0;-26;0;0;0;0;0
1587045289614;-14;-10;4;12;-9;-3;0;0;0;0;0
1587045289616;-8;13;21;-3;-14;17;0;0;0;0;0
1587045289618;-15;-10;5;12;-10;-2;0;0;0;0;0
1587045289620;-21;-23;-2;22;-9;-12;0;0;0;0;0
1587045289622;-9;-12;-3;10;-3;-7;0;0;0;0;0
1587045289624;-2;-10;-8;6;3;-9;0;0;0;0;0
1587045289626;-2;-17;-15;9;7;-16;0;0;0;0;0
1587045289628;3;-12;-15;4;9;-13;0;0;0;0;0
1587045289630;4;3;-1;-4;3;1;0;0;0;0;0
1587045289632;0;10;10;-5;-5;10;0;0;0;0;0
1587045289634;0;5;5;-3;-2;5;0;0;0;0;0
1587045289636;1;-11;-12;5;7;-11;0;0;0;0;0
1587045289638;1;-19;-20;9;11;-19;0;0;0;0;0
1587045289640;-7;-17;-10;12;2;-13;0;0;0;0;0
1587045289642;-10;-16;-6;13;-2;-11;0;0;0;0;0
1587045289644;-6;-8;-2;7;-2;-5;0;0;0;0;0
1587045289646;-6;-5;1;5;-3;-2;0;0;0;0;0
1587045289648;-8;-12;-4;10;-2;-8;0;0;0;0;0
1587045289650;-8;-19;-11;13;2;-15;0;0;0;0;0
1587045289652;-10;-23;-13;16;2;-18;0;0;0;0;0
1587045289654;-16;-26;-10;21;-3;-18;0;0;0;0;0
1587045289656;-25;-29;-4;27;-10;-16;0;0;0;0;0
1587045289658;-33;-20;13;26;-23;-3;0;0;0;0;0
1587045289660;-37;-14;23;25;-30;5;0;0;0;0;0
1587045289662;-38;-12;26;25;-32;7;0;0;0;0;0
1587045289664;-36;-12;24;24;-30;6;0;0;0;0;0
1587045289666;-35;-17;18;26;-26;1;0;0;0;0;0
1587045289668;-30;-3;27;16;-28;12;0;0;0;0;0
1587045289670;-22;3;25;9;-23;14;0;0;0;0;0
1587045289672;-15;3;18;6;-16;11;0;0;0;0;0
1587045289674;-16;-13;3;14;-9;-5;0;0;0;0;0
1587045289676;-21;-36;-15;28;-3;-25;0;0;0;0;0
1587045289678;-33;-49;-16;41;-8;-32;0;0;0;0;0
1587045289680;-44;-57;-13;50;-15;-35;0;0;0;0;0
1587045289682;-41;-61;-20;51;-10;-40;0;0;0;0;0
1587045289684;-32;-45;-13;38;-9;-29;0;0;0;0;0
1587045289686;-13;11;24;1;-18;18;0;0;0;0;0
1587045289688;11;53;42;-32;-15;48;0;0;0;0;0
1587045289690;15;63;48;-39;-16;56;0;0;0;0;0
1587045289692;0;32;32;-16;-16;32;0;0;0;0;0
1587045289694;-1;-1;0;1;0;0;0;0;0;0;0
1587045289696;1;-11;-12;5;7;-11;0;0;0;0;0
1587045289698;-2;-20;-18;11;8;-19;0;0;0;0;0
1587045289700;-7;-14;-7;10;0;-10;0;0;0;0;0
1587045289702;-14;-15;-1;14;-6;-8;0;0;0;0;0
1587045289704;-19;-19;0;19;-9;-9;0;0;0;0;0
1587045289706;-20;-1;19;10;-19;9;0;0;0;0;0
1587045289708;-23;-5;18;14;-20;7;0;0;0;0;0
1587045289710;-19;-13;6;16;-12;-3;0;0;0;0;0
1587045289712;-6;-5;1;5;-3;-2;0;0;0;0;0
1587045289714;-2;0;2;1;-2;1;0;0;0;0;0
1587045289716;-5;1;6;2;-5;4;0;0;0;0;0
1587045289718;-6;-2;4;4;-5;1;0;0;0;0;0
1587045289720;-6;-6;0;6;-3;-3;0;0;0;0;0
1587045289722;-20;-11;9;15;-14;-1;0;0;0;0;0
1587045289724;-20;-20;0;20;-10;-10;0;0;0;0;0
1587045289726;-16;-29;-13;22;-1;-21;0;0;0;0;0
1587045289728;-23;-35;-12;29;-5;-23;0;0;0;0;0
1587045289730;-16;-40;-24;28;4;-32;0;0;0;0;0
1587045289732;-8;-25;-17;16;5;-21;0;0;0;0;0
1587045289734;-4;8;12;-2;-8;10;0;0;0;0;0
1587045289736;-2;39;41;-19;-21;40;0;0;0;0;0
1587045289738;-8;26;34;-9;-21;30;0;0;0;0;0
1587045289740;-20;-16;4;18;-12;-6;0;0;0;0;0
1587045289742;-15;-27;-12;21;-1;-19;0;0;0;0;0
1587045289744;-7;-11;-4;9;-1;-7;0;0;0;0;0
1587045289746;-16;-12;4;14;-10;-4;0;0;0;0;0
1587045289748;-16;-14;2;15;-9;-6;0;0;0;0;0
1587045289750;-12;-16;-4;14;-4;-10;0;0;0;0;0
1587045289752;-18;-26;-8;22;-5;-17;0;0;0;0;0
1587045289754;-20;-16;4;18;-12;-6;0;0;0;0;0
1587045289756;-17;-10;7;13;-12;-1;0;0;0;0;0
1587045289758;-18;-29;-11;23;-3;-20;0;0;0;0;0
1587045289760;-21;-39;-18;30;-1;-28;0;0;0;0;0
1587045289762;-22;-23;-1;22;-10;-12;0;0;0;0;0
1587045289764;-19;-12;7;15;-13;-2;0;0;0;0;0
1587045289766;-9;-7;2;8;-5;-2;0;0;0;0;0
1587045289768;5;3;-2;-4;4;1;0;0;0;0;0
1587045289770;-4;-5;-1;4;-1;-3;0;0;0;0;0
1587045289772;-30;-42;-12;36;-9;-27;0;0;0;0;0
1587045289774;-33;-49;-16;41;-8;-32;0;0;0;0;0
1587045289776;-15;-14;1;14;-8;-6;0;0;0;0;0
1587045289778;-14;-14;0;14;-7;-7;0;0;0;0;0
1587045289780;-33;-39;-6;36;-13;-22;0;0;0;0;0
1587045289782;-34;-24;10;29;-22;-7;0;0;0;0;0
1587045289784;-21;-18;3;19;-12;-7;0;0;0;0;0
1587045289786;-13;-32;-19;22;3;-25;0;0;0;0;0
1587045289788;-9;-39;-30;24;11;-34;0;0;0;0;0
1587045289790;-12;-46;-34;29;11;-40;0;0;0;0;0
1587045289792;-14;-45;-31;29;9;-38;0;0;0;0;0
1587045289794;-15;-37;-22;26;4;-29;0;0;0;0;0
1587045289796;-14;-24;-10;19;-2;-17;0;0;0;0;0
1587045289798;-11;-13;-2;12;-4;-7;0;0;0;0;0
1587045289800;-13;-9;4;11;-8;-2;0;0;0;0;0
1587045289802;-21;-28;-7;24;-7;-17;0;0;0;0;0
1587045289804;-23;-60;-37;41;7;-48;0;0;0;0;0
1587045289806;-20;-58;-38;39;9;-48;0;0;0;0;0
1587045289808;-20;-38;-18;29;-1;-28;0;0;0;0;0
1587045289810;-15;-36;-21;25;3;-28;0;0;0;0;0
1587045289812;-18;-51;-33;34;8;-42;0;0;0;0;0
1587045289814;-15;-70;-55;42;20;-62;0;0;0;0;0
1587045289816;-17;-71;-54;44;19;-62;0;0;0;0;0
1587045289818;-28;-57;-29;42;1;-43;0;0;0;0;0
1587045289820;-21;-35;-14;28;-3;-24;0;0;0;0;0
1587045289822;-9;-12;-3;10;-3;-7;0;0;0;0;0
1587045289824;0;-15;-15;7;8;-15;0;0;0;0;0
1587045289826;0;-37;-37;18;19;-37;0;0;0;0;0
1587045289828;-5;-54;-49;29;22;-51;0;0;0;0;0
1587045289830;-9;-36;-27;22;9;-31;0;0;0;0;0
1587045289832;-15;-17;-2;16;-6;-9;0;0;0;0;0
1587045289834;-13;-14;-1;13;-6;-7;0;0;0;0;0
1587045289836;-5;-1;4;3;-4;2;0;0;0;0;0
1587045289838;-11;-15;-4;13;-3;-9;0;0;0;0;0
1587045289840;-29;-57;-28;43;0;-42;0;0;0;0;0
1587045289842;-27;-67;-40;47;7;-53;0;0;0;0;0
1587045289844;-12;-42;-30;27;9;-36;0;0;0;0;0
1587045289846;-6;-38;-32;22;13;-35;0;0;0;0;0
1587045289848;-6;-51;-45;28;20;-48;0;0;0;0;0
1587045289850;-9;-59;-50;34;21;-54;0;0;0;0;0
1587045289852;-6;-54;-48;30;21;-51;0;0;0;0;0
1587045289854;-10;-38;-28;24;9;-33;0;0;0;0;0
1587045289856;-12;-13;-1;12;-5;-7;0;0;0;0;0
1587045289858;-6;-5;1;5;-3;-2;0;0;0;0;0
1587045289860;-7;-20;-13;13;3;-16;0;0;0;0;0
1587045289862;-15;-42;-27;28;6;-34;0;0;0;0;0
1587045289864;-19;-70;-51;44;16;-60;0;0;0;0;0
1587045289866;-20;-87;-67;53;24;-77;0;0;0;0;0
1587045289868;-32;-89;-57;60;13;-73;0;0;0;0;0
1587045289870;-36;-91;-55;63;10;-73;0;0;0;0;0
1587045289872;-32;-85;-53;58;11;-69;0;0;0;0;0
1587045289874;-27;-79;-52;53;13;-65;0;0;0;0;0
1587045289876;-17;-68;-51;42;17;-59;0;0;0;0;0
1587045289878;-8;-54;-46;31;19;-50;0;0;0;0;0
1587045289880;-10;-57;-47;33;19;-52;0;0;0;0;0
1587045289882;-14;-54;-40;34;13;-47;0;0;0;0;0
1587045289884;-19;-56;-37;37;9;-46;0;0;0;0;0
1587045289886;-26;-66;-40;46;7;-53;0;0;0;0;0
1587045289888;-6;-44;-38;25;16;-41;0;0;0;0;0
1587045289890;-10;-50;-40;30;15;-45;0;0;0;0;0
1587045289892;-45;-89;-44;67;0;-66;0;0;0;0;0
1587045289894;-29;-47;-18;38;-5;-32;0;0;0;0;0
1587045289896;1;-1;-2;0;2;-1;0;0;0;0;0
1587045289898;10;-9;-19;-1;15;-14;0;0;0;0;0
1587045289900;8;-23;-31;7;20;-27;0;0;0;0;0
1587045289902;-11;-39;-28;25;9;-33;0;0;0;0;0
1587045289904;-14;-39;-25;26;6;-32;0;0;0;0;0
1587045289906;-5;-15;-10;10;3;-12;0;0;0;0;0
1587045289908;-6;-7;-1;6;-2;-4;0;0;0;0;0
1587045289910;-2;-15;-13;8;6;-14;0;0;0;0;0
1587045289912;9;-8;-17;-1;13;-12;0;0;0;0;0
1587045289914;10;-16;-26;3;18;-21;0;0;0;0;0
1587045289916;4;-18;-22;7;13;-20;0;0;0;0;0
1587045289918;-1;6;7;-3;-4;7;0;0;0;0;0
1587045289920;4;21;17;-13;-6;19;0;0;0;0;0
1587045289922;14;26;12;-20;1;19;0;0;0;0;0
1587045289924;21;26;5;-24;8;16;0;0;0;0;0
1587045289926;26;26;0;-26;13;13;0;0;0;0;0
1587045289928;24;17;-7;-21;16;5;0;0;0;0;0
1587045289930;15;10;-5;-13;10;3;0;0;0;0;0
1587045289932;2;-1;-3;-1;3;-2;0;0;0;0;0
1587045289934;-15;-28;-13;21;-1;-20;0;0;0;0;0
1587045289936;-12;-29;-17;20;3;-23;0;0;0;0;0
1587045289938;6;-8;-14;1;10;-11;0;0;0;0;0
1587045289940;15;18;3;-17;6;11;0;0;0;0;0
1587045289942;15;24;9;-20;3;17;0;0;0;0;0
1587045289944;10;-2;-12;-4;11;-7;0;0;0;0;0
1587045289946;7;-26;-33;9;20;-29;0;0;0;0;0
1587045289948;9;-28;-37;9;23;-32;0;0;0;0;0
1587045289950;13;-25;-38;6;26;-31;0;0;0;0;0
1587045289952;14;-27;-41;6;28;-34;0;0;0;0;0
1587045289954;16;0;-16;-8;16;-8;0;0;0;0;0
1587045289956;15;9;-6;-12;11;2;0;0;0;0;0
1587045289958;12;-26;-38;7;25;-32;0;0;0;0;0
1587045289960;8;-43;-51;17;30;-47;0;0;0;0;0
1587045289962;0;-55;-55;27;28;-55;0;0;0;0;0
1587045289964;-2;-70;-68;36;33;-69;0;0;0;0;0
1587045289966;-4;-72;-68;38;32;-70;0;0;0;0;0
1587045289968;-8;-58;-50;33;21;-54;0;0;0;0;0
1587045289970;-4;-47;-43;25;20;-45;0;0;0;0;0
1587045289972;-2;-63;-61;32;30;-62;0;0;0;0;0
1587045289974;4;-69;-73;32;39;-71;0;0;0;0;0
1587045289976;12;-55;-67;21;40;-61;0;0;0;0;0
1587045289978;7;-41;-48;17;28;-44;0;0;0;0;0
1587045289980;2;-38;-40;18;21;-39;0;0;0;0;0
1587045289982;-3;-34;-31;18;14;-32;0;0;0;0;0
1587045289984;-17;-46;-29;31;6;-37;0;0;0;0;0
1587045289986;-23;-91;-68;57;23;-79;0;0;0;0;0
1587045289988;-12;-99;-87;55;38;-93;0;0;0;0;0
1587045289990;4;-69;-73;32;39;-71;0;0;0;0;0
1587045289992;5;-70;-75;32;40;-72;0;0;0;0;0
1587045289994;-6;-78;-72;42;33;-75;0;0;0;0;0
1587045289996;-13;-76;-63;44;25;-69;0;0;0;0;0
1587045289998;-18;-89;-71;53;27;-80;0;0;0;0;0
1587045290000;-19;-94;-75;56;28;-84;0;0;0;0;0
1587045290002;-20;-87;-67;53;24;-77;0;0;0;0;0
1587045290004;-21;-84;-63;52;21;-73;0;0;0;0;0
1587045290006;-11;-80;-69;45;29;-74;0;0;0;0;0
1587045290008;-3;-75;-72;39;35;-73;0;0;0;0;0
1587045290010;1;-54;-55;26;28;-54;0;0;0;0;0
1587045290012;-5;-28;-23;16;9;-25;0;0;0;0;0
1587045290014;-5;-29;-24;17;10;-26;0;0;0;0;0
1587045290016;-2;-48;-46;25;22;-47;0;0;0;0;0
1587045290018;-6;-65;-59;35;27;-62;0;0;0;0;0
1587045290020;-6;-74;-68;40;31;-71;0;0;0;0;0
1587045290022;4;-70;-74;33;39;-72;0;0;0;0;0
1587045290024;6;-69;-75;31;41;-72;0;0;0;0;0
1587045290026;0;-63;-63;31;32;-63;0;0;0;0;0
1587045290028;-2;-53;-51;27;25;-52;0;0;0;0;0
1587045290030;-4;-62;-58;33;27;-60;0;0;0;0;0
1587045290032;-2;-63;-61;32;30;-62;0;0;0;0;0
1587045290034;-12;-56;-44;34;16;-50;0;0;0;0;0
1587045290036;-31;-70;-39;50;4;-54;0;0;0;0;0
1587045290038;-34;-93;-59;63;13;-76;0;0;0;0;0
1587045290040;-26;-106;-80;66;27;-93;0;0;0;0;0
1587045290042;-23;-107;-84;65;31;-95;0;0;0;0;0
1587045290044;-29;-118;-89;73;30;-103;0;0;0;0;0
1587045290046;-35;-133;-98;84;32;-115;0;0;0;0;0
1587045290048;-28;-126;-98;77;35;-112;0;0;0;0;0
1587045290050;-4;-81;-77;42;37;-79;0;0;0;0;0
1587045290052;26;-35;-61;4;44;-48;0;0;0;0;0
1587045290054;44;-20;-64;-12;54;-42;0;0;0;0;0
1587045290056;57;12;-45;-35;51;-16;0;0;0;0;0
1587045290058;92;75;-17;-84;55;29;0;0;0;0;0
1587045290060;146;145;-1;-146;74;72;0;0;0;0;0
1587045290062;201;217;16;-209;93;117;0;0;0;0;0
1587045290064;230;282;52;-256;89;167;0;0;0;0;0
1587045290066;231;344;113;-288;59;229;0;0;0;0;0
1587045290068;222;433;211;-328;6;322;0;0;0;0;0
1587045290070;199;530;331;-365;-66;431;0;0;0;0;0
1587045290072;168;609;441;-389;-136;525;0;0;0;0;0
1587045290074;135;678;543;-407;-204;611;0;0;0;0;0
1587045290076;100;707;607;-404;-253;657;0;0;0;0;0
1587045290078;49;681;632;-365;-291;657;0;0;0;0;0
1587045290080;4;626;622;-315;-309;624;0;0;0;0;0
1587045290082;-12;549;561;-269;-286;555;0;0;0;0;0
1587045290084;-20;441;461;-211;-240;451;0;0;0;0;0
1587045290086;-30;332;362;-151;-196;347;0;0;0;0;0
1587045290088;-37;233;270;-98;-153;252;0;0;0;0;0
1587045290090;-37;141;178;-52;-107;160;0;0;0;0;0
1587045290092;-38;74;112;-18;-75;93;0;0;0;0;0
1587045290094;-39;26;65;6;-52;46;0;0;0;0;0
1587045290096;-38;2;40;18;-39;21;0;0;0;0;0
1587045290098;-38;-10;28;24;-33;9;0;0;0;0;0
1587045290100;-31;-26;5;28;-18;-10;0;0;0;0;0
1587045290102;-25;-33;-8;29;-8;-20;0;0;0;0;0
1587045290104;-32;-32;0;32;-16;-16;0;0;0;0;0
1587045290106;-29;-34;-5;31;-12;-19;0;0;0;0;0
1587045290108;-7;-29;-22;18;8;-25;0;0;0;0;0
1587045290110;4;-10;-14;3;9;-12;0;0;0;0;0
1587045290112;3;12;9;-8;-3;11;0;0;0;0;0
1587045290114;7;13;6;-10;1;10;0;0;0;0;0
1587045290116;11;0;-11;-6;11;-5;0;0;0;0;0
1587045290118;10;-4;-14;-3;12;-9;0;0;0;0;0
1587045290120;10;-17;-27;3;19;-22;0;0;0;0;0
1587045290122;15;-19;-34;2;25;-26;0;0;0;0;0
1587045290124;15;-10;-25;-3;20;-17;0;0;0;0;0
1587045290126;14;-6;-20;-4;17;-13;0;0;0;0;0
1587045290128;11;-13;-24;1;18;-18;0;0;0;0;0
1587045290130;8;-24;-32;8;20;-28;0;0;0;0;0
1587045290132;8;-23;-31;7;20;-27;0;0;0;0;0
1587045290134;4;-7;-11;1;8;-9;0;0;0;0;0
1587045290136;5;7;2;-6;2;5;0;0;0;0;0
1587045290138;11;-9;-20;-1;16;-14;0;0;0;0;0
1587045290140;5;-31;-36;13;21;-33;0;0;0;0;0
1587045290142;-5;-34;-29;19;12;-31;0;0;0;0;0
1587045290144;3;-20;-23;8;13;-21;0;0;0;0;0
1587045290146;24;-4;-28;-10;26;-16;0;0;0;0;0
1587045290148;30;-1;-31;-15;31;-16;0;0;0;0;0
1587045290150;28;-13;-41;-8;35;-27;0;0;0;0;0
1587045290152;25;-31;-56;3;41;-43;0;0;0;0;0
1587045290154;14;-40;-54;13;34;-47;0;0;0;0;0
1587045290156;5;-30;-35;12;20;-32;0;0;0;0;0
1587045290158;3;-14;-17;5;10;-15;0;0;0;0;0
1587045290160;3;-7;-10;2;7;-8;0;0;0;0;0
1587045290162;11;-21;-32;5;22;-26;0;0;0;0;0
1587045290164;19;-16;-35;-2;27;-25;0;0;0;0;0
1587045290166;19;30;11;-25;4;21;0;0;0;0;0
1587045290168;22;73;51;-48;-14;62;0;0;0;0;0
1587045290170;30;47;17;-39;7;32;0;0;0;0;0
1587045290172;27;-7;-34;-10;31;-20;0;0;0;0;0
1587045290174;14;-15;-29;0;22;-22;0;0;0;0;0
1587045290176;15;-5;-20;-5;18;-12;0;0;0;0;0
1587045290178;23;-5;-28;-9;26;-16;0;0;0;0;0
1587045290180;24;-20;-44;-2;34;-32;0;0;0;0;0
1587045290182;25;-23;-48;-1;37;-35;0;0;0;0;0
1587045290184;23;-19;-42;-2;33;-30;0;0;0;0;0
1587045290186;23;-20;-43;-2;33;-31;0;0;0;0;0
1587045290188;26;-13;-39;-7;33;-26;0;0;0;0;0
1587045290190;26;-9;-35;-9;31;-22;0;0;0;0;0
1587045290192;27;-10;-37;-9;32;-23;0;0;0;0;0
1587045290194;29;-8;-37;-11;33;-22;0;0;0;0;0
1587045290196;31;-2;-33;-15;32;-17;0;0;0;0;0
1587045290198;27;-3;-30;-12;29;-16;0;0;0;0;0
1587045290200;18;-10;-28;-4;23;-19;0;0;0;0;0
1587045290202;16;-7;-23;-5;20;-15;0;0;0;0;0
1587045290204;17;-5;-22;-6;20;-13;0;0;0;0;0
1587045290206;24;-4;-28;-10;26;-16;0;0;0;0;0
1587045290208;28;-6;-34;-11;31;-20;0;0;0;0;0
1587045290210;32;-5;-37;-14;35;-21;0;0;0;0;0
1587045290212;31;-2;-33;-15;32;-17;0;0;0;0;0
1587045290214;17;-5;-22;-6;20;-13;0;0;0;0;0
1587045290216;13;-10;-23;-2;18;-16;0;0;0;0;0
1587045290218;19;15;-4;-17;12;6;0;0;0;0;0
1587045290220;20;50;30;-35;-5;40;0;0;0;0;0
1587045290222;22;39;17;-31;3;28;0;0;0;0;0
1587045290224;26;30;4;-28;11;17;0;0;0;0;0
1587045290226;23;20;-3;-22;13;9;0;0;0;0;0
1587045290228;21;6;-15;-14;18;-4;0;0;0;0;0
1587045290230;27;-8;-35;-10;31;-21;0;0;0;0;0
1587045290232;24;-30;-54;3;39;-42;0;0;0;0;0
1587045290234;13;-15;-28;1;21;-21;0;0;0;0;0
1587045290236;13;7;-6;-10;10;1;0;0;0;0;0
1587045290238;13;12;-1;-13;7;6;0;0;0;0;0
1587045290240;13;34;21;-24;-4;28;0;0;0;0;0
1587045290242;11;45;34;-28;-11;40;0;0;0;0;0
1587045290244;15;34;19;-25;-2;27;0;0;0;0;0
1587045290246;23;-4;-27;-10;25;-15;0;0;0;0;0
1587045290248;22;-44;-66;11;44;-55;0;0;0;0;0
1587045290250;17;-40;-57;11;37;-48;0;0;0;0;0
1587045290252;19;-17;-36;-1;28;-26;0;0;0;0;0
1587045290254;22;5;-17;-14;20;-6;0;0;0;0;0
1587045290256;23;18;-5;-21;14;7;0;0;0;0;0
1587045290258;26;14;-12;-20;19;1;0;0;0;0;0
1587045290260;24;3;-21;-14;23;-9;0;0;0;0;0
1587045290262;32;0;-32;-16;32;-16;0;0;0;0;0
1587045290264;47;-1;-48;-23;48;-24;0;0;0;0;0
1587045290266;47;-4;-51;-22;49;-27;0;0;0;0;0
1587045290268;39;-17;-56;-11;48;-36;0;0;0;0;0
1587045290270;40;-12;-52;-14;46;-32;0;0;0;0;0
1587045290272;37;48;11;-43;13;30;0;0;0;0;0
1587045290274;33;76;43;-55;-5;60;0;0;0;0;0
1587045290276;37;37;0;-37;19;19;0;0;0;0;0
1587045290278;34;7;-27;-21;31;-10;0;0;0;0;0
1587045290280;26;6;-20;-16;23;-7;0;0;0;0;0
1587045290282;33;18;-15;-26;24;2;0;0;0;0;0
1587045290284;44;41;-3;-43;24;19;0;0;0;0;0
1587045290286;44;61;17;-53;14;39;0;0;0;0;0
1587045290288;40;53;13;-47;14;33;0;0;0;0;0
1587045290290;31;36;5;-34;13;21;0;0;0;0;0
1587045290292;19;21;2;-20;9;12;0;0;0;0;0
1587045290294;23;19;-4;-21;14;8;0;0;0;0;0
1587045290296;41;26;-15;-34;28;6;0;0;0;0;0
1587045290298;58;38;-20;-48;39;9;0;0;0;0;0
1587045290300;68;35;-33;-52;51;1;0;0;0;0;0
1587045290302;65;10;-55;-38;60;-22;0;0;0;0;0
1587045290304;57;12;-45;-35;51;-16;0;0;0;0;0
1587045290306;60;34;-26;-47;43;4;0;0;0;0;0
1587045290308;65;44;-21;-55;43;12;0;0;0;0;0
1587045290310;66;53;-13;-60;40;20;0;0;0;0;0
1587045290312;71;69;-2;-70;37;34;0;0;0;0;0
1587045290314;59;55;-4;-57;32;26;0;0;0;0;0
1587045290316;40;22;-18;-31;29;2;0;0;0;0;0
1587045290318;40;39;-1;-40;21;19;0;0;0;0;0
1587045290320;48;66;18;-57;15;42;0;0;0;0;0
1587045290322;56;44;-12;-50;34;16;0;0;0;0;0
1587045290324;65;25;-40;-45;53;-7;0;0;0;0;0
1587045290326;72;31;-41;-52;57;-5;0;0;0;0;0
1587045290328;71;46;-25;-59;48;11;0;0;0;0;0
1587045290330;65;55;-10;-60;38;23;0;0;0;0;0
1587045290332;59;55;-4;-57;32;26;0;0;0;0;0
1587045290334;55;44;-11;-50;33;17;0;0;0;0;0
1587045290336;59;35;-24;-47;42;6;0;0;0;0;0
1587045290338;63;51;-12;-57;38;20;0;0;0;0;0
1587045290340;68;81;13;-75;28;47;0;0;0;0;0
1587045290342;75;91;16;-83;30;54;0;0;0;0;0
1587045290344;71;96;25;-84;23;61;0;0;0;0;0
1587045290346;57;101;44;-79;7;73;0;0;0;0;0
1587045290348;62;86;24;-74;19;55;0;0;0;0;0
1587045290350;75;77;2;-76;37;40;0;0;0;0;0
1587045290352;70;86;16;-78;27;51;0;0;0;0;0
1587045290354;65;90;25;-78;20;58;0;0;0;0;0
1587045290356;64;71;7;-68;29;39;0;0;0;0;0
1587045290358;58;40;-18;-49;38;11;0;0;0;0;0
1587045290360;47;23;-24;-35;36;0;0;0;0;0;0
1587045290362;32;23;-9;-28;21;7;0;0;0;0;0
1587045290364;30;26;-4;-28;17;11;0;0;0;0;0
1587045290366;29;13;-16;-21;23;-1;0;0;0;0;0
1587045290368;20;6;-14;-13;17;-4;0;0;0;0;0
1587045290370;17;39;22;-28;-2;31;0;0;0;0;0
1587045290372;25;69;44;-47;-9;57;0;0;0;0;0
1587045290374;40;75;35;-58;3;55;0;0;0;0;0
1587045290376;45;72;27;-59;9;50;0;0;0;0;0
1587045290378;32;47;15;-40;9;31;0;0;0;0;0
1587045290380;21;22;1;-22;10;12;0;0;0;0;0
1587045290382;15;2;-13;-9;14;-5;0;0;0;0;0
1587045290384;9;-5;-14;-2;12;-9;0;0;0;0;0
1587045290386;11;-1;-12;-5;12;-6;0;0;0;0;0
1587045290388;10;-8;-18;-1;14;-13;0;0;0;0;0
1587045290390;1;-26;-27;12;14;-26;0;0;0;0;0
1587045290392;4;-22;-26;9;15;-24;0;0;0;0;0
1587045290394;12;-9;-21;-2;17;-15;0;0;0;0;0
1587045290396;-1;-27;-26;14;13;-26;0;0;0;0;0
1587045290398;-9;-28;-19;18;5;-23;0;0;0;0;0
1587045290400;-5;-2;3;3;-4;1;0;0;0;0;0
1587045290402;-2;5;7;-2;-4;6;0;0;0;0;0
1587045290404;5;-1;-6;-2;6;-3;0;0;0;0;0
1587045290406;7;-13;-20;3;14;-16;0;0;0;0;0
1587045290408;-7;-29;-22;18;8;-25;0;0;0;0;0
1587045290410;-16;-40;-24;28;4;-32;0;0;0;0;0
1587045290412;-14;-63;-49;38;18;-56;0;0;0;0;0
1587045290414;-24;-72;-48;48;12;-60;0;0;0;0;0
1587045290416;-30;-39;-9;34;-10;-24;0;0;0;0;0
1587045290418;-25;-17;8;21;-16;-4;0;0;0;0;0
1587045290420;-25;-27;-2;26;-11;-14;0;0;0;0;0
1587045290422;-27;-27;0;27;-13;-13;0;0;0;0;0
1587045290424;-30;-10;20;20;-25;5;0;0;0;0;0
1587045290426;-34;-9;25;21;-29;8;0;0;0;0;0
1587045290428;-35;-23;12;29;-23;-5;0;0;0;0;0
1587045290430;-29;-26;3;27;-16;-11;0;0;0;0;0
1587045290432;-25;-39;-14;32;-5;-26;0;0;0;0;0
1587045290434;-26;-64;-38;45;6;-51;0;0;0;0;0
1587045290436;-27;-78;-51;52;12;-64;0;0;0;0;0
1587045290438;-22;-71;-49;46;14;-60;0;0;0;0;0
1587045290440;-14;-54;-40;34;13;-47;0;0;0;0;0
1587045290442;-14;-44;-30;29;8;-37;0;0;0;0;0
1587045290444;-18;-33;-15;25;-1;-24;0;0;0;0;0
1587045290446;-23;-38;-15;30;-4;-26;0;0;0;0;0
1587045290448;-22;-51;-29;36;4;-40;0;0;0;0;0
1587045290450;-18;-58;-40;38;11;-49;0;0;0;0;0
1587045290452;-16;-57;-41;36;13;-49;0;0;0;0;0
1587045290454;-11;-22;-11;16;0;-16;0;0;0;0;0
1587045290456;-10;-1;9;5;-9;4;0;0;0;0;0
1587045290458;-13;-22;-9;17;-2;-15;0;0;0;0;0
1587045290460;-27;-40;-13;33;-7;-26;0;0;0;0;0
1587045290462;-36;-18;18;27;-27;0;0;0;0;0;0
1587045290464;-29;0;29;14;-29;15;0;0;0;0;0
1587045290466;-28;-28;0;28;-14;-14;0;0;0;0;0
1587045290468;-28;-49;-21;38;-3;-35;0;0;0;0;0
1587045290470;-22;-37;-15;29;-3;-26;0;0;0;0;0
1587045290472;-17;-19;-2;18;-7;-10;0;0;0;0;0
1587045290474;-15;-27;-12;21;-1;-19;0;0;0;0;0
1587045290476;-24;-35;-11;29;-6;-23;0;0;0;0;0
1587045290478;-29;-29;0;29;-14;-14;0;0;0;0;0
1587045290480;-28;-43;-15;35;-6;-29;0;0;0;0;0
1587045290482;-32;-56;-24;44;-4;-40;0;0;0;0;0
1587045290484;-35;-48;-13;41;-11;-30;0;0;0;0;0
1587045290486;-34;-48;-14;41;-10;-31;0;0;0;0;0
1587045290488;-29;-47;-18;38;-5;-32;0;0;0;0;0
1587045290490;-24;-43;-19;33;-2;-31;0;0;0;0;0
1587045290492;-24;-54;-30;39;3;-42;0;0;0;0;0
1587045290494;-27;-55;-28;41;1;-41;0;0;0;0;0
1587045290496;-27;-29;-2;28;-12;-15;0;0;0;0;0
1587045290498;-27;-11;16;19;-21;3;0;0;0;0;0
1587045290500;-28;-20;8;24;-18;-6;0;0;0;0;0
1587045290502;-35;-50;-15;42;-10;-32;0;0;0;0;0
1587045290504;-40;-71;-31;55;-4;-51;0;0;0;0;0
1587045290506;-41;-71;-30;56;-5;-50;0;0;0;0;0
1587045290508;-38;-63;-25;50;-6;-44;0;0;0;0;0
1587045290510;-27;-45;-18;36;-4;-31;0;0;0;0;0
1587045290512;-27;-39;-12;33;-7;-25;0;0;0;0;0
1587045290514;-23;-37;-14;30;-4;-25;0;0;0;0;0
1587045290516;-10;-37;-27;23;9;-32;0;0;0;0;0
1587045290518;-15;-33;-18;24;2;-25;0;0;0;0;0
1587045290520;-23;-23;0;23;-11;-11;0;0;0;0;0
1587045290522;-22;-23;-1;22;-10;-12;0;0;0;0;0
1587045290524;-25;-25;0;25;-12;-12;0;0;0;0;0
1587045290526;-32;-26;6;29;-19;-10;0;0;0;0;0
1587045290528;-30;-32;-2;31;-14;-17;0;0;0;0;0
1587045290530;-27;-36;-9;31;-9;-22;0;0;0;0;0
1587045290532;-27;-30;-3;28;-12;-16;0;0;0;0;0
1587045290534;-28;-25;3;26;-15;-11;0;0;0;0;0
1587045290536;-31;-34;-3;32;-14;-18;0;0;0;0;0
1587045290538;-35;-52;-17;43;-9;-34;0;0;0;0;0
1587045290540;-32;-54;-22;43;-5;-38;0;0;0;0;0
1587045290542;-31;-52;-21;41;-5;-36;0;0;0;0;0
1587045290544;-31;-54;-23;42;-4;-38;0;0;0;0;0
1587045290546;-28;-55;-27;41;0;-41;0;0;0;0;0
1587045290548;-24;-51;-27;37;2;-39;0;0;0;0;0
1587045290550;-11;-32;-21;21;5;-26;0;0;0;0;0
1587045290552;-7;-25;-18;16;6;-21;0;0;0;0;0
1587045290554;-20;-50;-30;35;5;-40;0;0;0;0;0
1587045290556;-21;-44;-23;32;1;-33;0;0;0;0;0
1587045290558;-15;-10;5;12;-10;-2;0;0;0;0;0
1587045290560;-19;-9;10;14;-14;1;0;0;0;0;0
1587045290562;-27;-22;5;24;-16;-8;0;0;0;0;0
1587045290564;-28;-25;3;26;-15;-11;0;0;0;0;0
1587045290566;-28;-31;-3;29;-12;-17;0;0;0;0;0
1587045290568;-26;-29;-3;27;-11;-16;0;0;0;0;0
1587045290570;-25;-28;-3;26;-11;-15;0;0;0;0;0
1587045290572;-26;-38;-12;32;-7;-25;0;0;0;0;0
1587045290574;-23;-37;-14;30;-4;-25;0;0;0;0;0
1587045290576;-22;-28;-6;25;-8;-17;0;0;0;0;0
1587045290578;-24;-25;-1;24;-11;-13;0;0;0;0;0
1587045290580;-23;-51;-28;37;3;-39;0;0;0;0;0
1587045290582;-26;-67;-41;46;8;-54;0;0;0;0;0
1587045290584;-32;-48;-16;40;-8;-32;0;0;0;0;0
1587045290586;-34;-33;1;33;-17;-16;0;0;0;0;0
1587045290588;-27;-26;1;26;-14;-12;0;0;0;0;0
1587045290590;-22;-30;-8;26;-7;-19;0;0;0;0;0
1587045290592;-26;-38;-12;32;-7;-25;0;0;0;0;0
1587045290594;-29;-40;-11;34;-9;-25;0;0;0;0;0
1587045290596;-27;-43;-16;35;-5;-29;0;0;0;0;0
1587045290598;-26;-47;-21;36;-2;-34;0;0;0;0;0
1587045290600;-27;-53;-26;40;0;-39;0;0;0;0;0
1587045290602;-26;-54;-28;40;1;-41;0;0;0;0;0
1587045290604;-17;-38;-21;27;2;-29;0;0;0;0;0
1587045290606;-17;-33;-16;25;0;-24;0;0;0;0;0
1587045290608;-27;-42;-15;34;-6;-28;0;0;0;0;0
1587045290610;-24;-37;-13;30;-5;-25;0;0;0;0;0
1587045290612;-15;-38;-23;26;4;-30;0;0;0;0;0
1587045290614;-22;-49;-27;35;3;-38;0;0;0;0;0
1587045290616;-29;-56;-27;42;-1;-41;0;0;0;0;0
1587045290618;-28;-62;-34;45;3;-48;0;0;0;0;0
1587045290620;-26;-45;-19;35;-3;-32;0;0;0;0;0
1587045290622;-18;-14;4;16;-11;-5;0;0;0;0;0
1587045290624;-15;-16;-1;15;-7;-8;0;0;0;0;0
1587045290626;-17;-15;2;16;-9;-6;0;0;0;0;0
1587045290628;-18;1;19;8;-18;10;0;0;0;0;0
1587045290630;-25;3;28;11;-26;16;0;0;0;0;0
1587045290632;-38;2;40;18;-39;21;0;0;0;0;0
1587045290634;-44;-19;25;31;-34;3;0;0;0;0;0
1587045290636;-41;-58;-17;49;-12;-37;0;0;0;0;0
1587045290638;-36;-70;-34;53;-1;-52;0;0;0;0;0
1587045290640;-32;-60;-28;46;-2;-44;0;0;0;0;0
1587045290642;-33;-61;-28;47;-2;-44;0;0;0;0;0
1587045290644;-29;-66;-37;47;4;-51;0;0;0;0;0
1587045290646;-20;-57;-37;38;9;-47;0;0;0;0;0
1587045290648;-24;-45;-21;34;-1;-33;0;0;0;0;0
1587045290650;-34;-43;-9;38;-12;-26;0;0;0;0;0
1587045290652;-33;-44;-11;38;-11;-27;0;0;0;0;0
1587045290654;-29;-43;-14;36;-7;-28;0;0;0;0;0
1587045290656;-31;-46;-15;38;-8;-30;0;0;0;0;0
1587045290658;-39;-43;-4;41;-17;-23;0;0;0;0;0
1587045290660;-42;-27;15;34;-28;-6;0;0;0;0;0
1587045290662;-31;-20;11;25;-21;-4;0;0;0;0;0
1587045290664;-26;-27;-1;26;-12;-14;0;0;0;0;0
1587045290666;-30;-43;-13;36;-8;-28;0;0;0;0;0
1587045290668;-29;-55;-26;42;-1;-40;0;0;0;0;0
1587045290670;-25;-60;-35;42;5;-47;0;0;0;0;0
1587045290672;-29;-58;-29;43;0;-43;0;0;0;0;0
1587045290674;-36;-47;-11;41;-12;-29;0;0;0;0;0
1587045290676;-39;-38;1;38;-20;-18;0;0;0;0;0
1587045290678;-42;-45;-3;43;-19;-24;0;0;0;0;0
1587045290680;-38;-55;-17;46;-10;-36;0;0;0;0;0
1587045290682;-30;-52;-22;41;-4;-37;0;0;0;0;0
1587045290684;-29;-43;-14;36;-7;-28;0;0;0;0;0
1587045290686;-26;-33;-7;29;-9;-20;0;0;0;0;0
1587045290688;-27;-39;-12;33;-7;-25;0;0;0;0;0
1587045290690;-31;-46;-15;38;-8;-30;0;0;0;0;0
1587045290692;-33;-39;-6;36;-13;-22;0;0;0;0;0
1587045290694;-31;-18;13;24;-22;-2;0;0;0;0;0
1587045290696;-24;3;27;10;-25;15;0;0;0;0;0
1587045290698;-21;-12;9;16;-15;-1;0;0;0;0;0
1587045290700;-24;-44;-20;34;-2;-32;0;0;0;0;0
1587045290702;-25;-54;-29;39;2;-41;0;0;0;0;0
1587045290704;-25;-51;-26;38;1;-38;0;0;0;0;0
1587045290706;-27;-44;-17;35;-5;-30;0;0;0;0;0
1587045290708;-29;-49;-20;39;-4;-34;0;0;0;0;0
1587045290710;-29;-55;-26;42;-1;-40;0;0;0;0;0
1587045290712;-32;-45;-13;38;-9;-29;0;0;0;0;0
1587045290714;-29;-27;2;28;-15;-12;0;0;0;0;0
1587045290716;-25;-26;-1;25;-12;-13;0;0;0;0;0
1587045290718;-26;-56;-30;41;2;-43;0;0;0;0;0
1587045290720;-22;-66;-44;44;11;-55;0;0;0;0;0
1587045290722;-25;-52;-27;38;1;-39;0;0;0;0;0
1587045290724;-29;-30;-1;29;-14;-15;0;0;0;0;0
1587045290726;-26;-21;5;23;-15;-8;0;0;0;0;0
1587045290728;-24;-43;-19;33;-2;-31;0;0;0;0;0
1587045290730;-27;-56;-29;41;1;-42;0;0;0;0;0
1587045290732;-35;-55;-20;45;-7;-37;0;0;0;0;0
1587045290734;-39;-62;-23;50;-8;-42;0;0;0;0;0
1587045290736;-31;-51;-20;41;-5;-35;0;0;0;0;0
1587045290738;-22;-32;-10;27;-6;-21;0;0;0;0;0
1587045290740;-22;-33;-11;27;-5;-22;0;0;0;0;0
1587045290742;-25;-38;-13;31;-6;-25;0;0;0;0;0
1587045290744;-26;-42;-16;34;-5;-29;0;0;0;0;0
1587045290746;-36;-57;-21;46;-7;-39;0;0;0;0;0
1587045290748;-47;-66;-19;56;-14;-42;0;0;0;0;0
1587045290750;-33;-42;-9;37;-12;-25;0;0;0;0;0
1587045290752;-8;-22;-14;15;3;-18;0;0;0;0;0
1587045290754;-3;-13;-10;8;4;-11;0;0;0;0;0
1587045290756;-12;-10;2;11;-7;-4;0;0;0;0;0
1587045290758;-16;-16;0;16;-8;-8;0;0;0;0;0
1587045290760;-12;-8;4;10;-8;-2;0;0;0;0;0
1587045290762;-13;-9;4;11;-8;-2;0;0;0;0;0
1587045290764;-14;-12;2;13;-8;-5;0;0;0;0;0
1587045290766;-5;3;8;1;-6;6;0;0;0;0;0
1587045290768;3;14;11;-9;-4;13;0;0;0;0;0
1587045290770;2;10;8;-6;-3;9;0;0;0;0;0
1587045290772;-3;9;12;-3;-7;11;0;0;0;0;0
1587045290774;-4;35;39;-16;-21;37;0;0;0;0;0
1587045290776;-7;58;65;-26;-36;62;0;0;0;0;0
1587045290778;-9;56;65;-24;-37;61;0;0;0;0;0
1587045290780;-9;47;56;-19;-32;52;0;0;0;0;0
1587045290782;-8;27;35;-10;-21;31;0;0;0;0;0
1587045290784;-7;-6;1;6;-4;-2;0;0;0;0;0
1587045290786;-8;-30;-22;19;7;-26;0;0;0;0;0
1587045290788;-7;-28;-21;17;7;-24;0;0;0;0;0
1587045290790;-9;-11;-2;10;-3;-6;0;0;0;0;0
1587045290792;-11;7;18;2;-14;13;0;0;0;0;0
1587045290794;-8;10;18;-1;-13;14;0;0;0;0;0
1587045290796;-2;3;5;-1;-3;4;0;0;0;0;0
1587045290798;4;-11;-15;3;10;-13;0;0;0;0;0
1587045290800;3;-29;-32;13;18;-30;0;0;0;0;0
1587045290802;-11;-13;-2;12;-4;-7;0;0;0;0;0
1587045290804;-12;15;27;-2;-19;21;0;0;0;0;0
1587045290806;-4;4;8;0;-6;6;0;0;0;0;0
1587045290808;0;-36;-36;18;18;-36;0;0;0;0;0
1587045290810;-4;-68;-64;36;30;-66;0;0;0;0;0
1587045290812;-28;-77;-49;52;11;-63;0;0;0;0;0
1587045290814;-36;-75;-39;55;2;-57;0;0;0;0;0
1587045290816;-29;-73;-44;51;8;-58;0;0;0;0;0
1587045290818;-19;-68;-49;43;15;-58;0;0;0;0;0
1587045290820;-11;-54;-43;32;16;-48;0;0;0;0;0
1587045290822;-9;-44;-35;26;13;-39;0;0;0;0;0
1587045290824;-16;-52;-36;34;10;-44;0;0;0;0;0
1587045290826;-37;-66;-29;51;-4;-47;0;0;0;0;0
1587045290828;-48;-67;-19;57;-14;-43;0;0;0;0;0
1587045290830;-44;-57;-13;50;-15;-35;0;0;0;0;0
1587045290832;-37;-52;-15;44;-11;-33;0;0;0;0;0
1587045290834;-36;-68;-32;52;-2;-50;0;0;0;0;0
1587045290836;-39;-85;-46;62;4;-65;0;0;0;0;0
1587045290838;-37;-73;-36;55;0;-54;0;0;0;0;0
1587045290840;-30;-43;-13;36;-8;-28;0;0;0;0;0
1587045290842;-31;-19;12;25;-21;-3;0;0;0;0;0
1587045290844;-36;-28;8;32;-22;-10;0;0;0;0;0
1587045290846;-41;-46;-5;43;-18;-25;0;0;0;0;0
1587045290848;-44;-44;0;44;-22;-22;0;0;0;0;0
1587045290850;-37;-53;-16;45;-10;-34;0;0;0;0;0
1587045290852;-31;-64;-33;47;1;-48;0;0;0;0;0
1587045290854;-36;-74;-38;55;1;-56;0;0;0;0;0
1587045290856;-43;-97;-54;70;6;-75;0;0;0;0;0
1587045290858;-37;-101;-64;69;14;-82;0;0;0;0;0
1587045290860;-27;-82;-55;54;14;-68;0;0;0;0;0
1587045290862;-28;-56;-28;42;0;-42;0;0;0;0;0
1587045290864;-35;-41;-6;38;-14;-23;0;0;0;0;0
1587045290866;-39;-58;-19;48;-10;-38;0;0;0;0;0
1587045290868;-39;-74;-35;56;-2;-54;0;0;0;0;0
1587045290870;-32;-65;-33;48;1;-49;0;0;0;0;0
1587045290872;-33;-63;-30;48;-1;-46;0;0;0;0;0
1587045290874;-37;-73;-36;55;0;-54;0;0;0;0;0
1587045290876;-40;-74;-34;57;-3;-54;0;0;0;0;0
1587045290878;-44;-76;-32;60;-6;-54;0;0;0;0;0
1587045290880;-47;-77;-30;62;-8;-53;0;0;0;0;0
1587045290882;-45;-67;-22;56;-11;-44;0;0;0;0;0
1587045290884;-40;-62;-22;51;-9;-42;0;0;0;0;0
1587045290886;-38;-76;-38;57;0;-57;0;0;0;0;0
1587045290888;-41;-102;-61;71;10;-81;0;0;0;0;0
1587045290890;-46;-116;-70;81;12;-93;0;0;0;0;0
1587045290892;-55;-105;-50;80;-2;-77;0;0;0;0;0
1587045290894;-65;-101;-36;83;-14;-68;0;0;0;0;0
1587045290896;-66;-117;-51;91;-7;-84;0;0;0;0;0
1587045290898;-66;-112;-46;89;-10;-79;0;0;0;0;0
1587045290900;-52;-67;-15;59;-18;-41;0;0;0;0;0
1587045290902;-24;-37;-13;30;-5;-25;0;0;0;0;0
1587045290904;-1;-31;-30;16;15;-30;0;0;0;0;0
1587045290906;32;-3;-35;-15;34;-19;0;0;0;0;0
1587045290908;78;52;-26;-65;52;13;0;0;0;0;0
1587045290910;133;131;-2;-132;68;65;0;0;0;0;0
1587045290912;188;223;35;-206;77;129;0;0;0;0;0
1587045290914;226;320;94;-273;66;207;0;0;0;0;0
1587045290916;243;404;161;-324;41;283;0;0;0;0;0
1587045290918;227;460;233;-344;-3;347;0;0;0;0;0
1587045290920;195;513;318;-354;-61;416;0;0;0;0;0
1587045290922;158;585;427;-372;-134;506;0;0;0;0;0
1587045290924;112;650;538;-381;-213;594;0;0;0;0;0
1587045290926;69;671;602;-370;-266;637;0;0;0;0;0
1587045290928;28;652;624;-340;-298;638;0;0;0;0;0
1587045290930;2;609;607;-306;-302;608;0;0;0;0;0
1587045290932;-30;515;545;-243;-287;530;0;0;0;0;0
1587045290934;-66;366;432;-150;-249;399;0;0;0;0;0
1587045290936;-76;241;317;-83;-196;279;0;0;0;0;0
1587045290938;-76;170;246;-47;-161;208;0;0;0;0;0
1587045290940;-80;109;189;-15;-134;149;0;0;0;0;0
1587045290942;-83;46;129;18;-106;88;0;0;0;0;0
1587045290944;-81;-3;78;42;-79;38;0;0;0;0;0
1587045290946;-82;-28;54;55;-68;13;0;0;0;0;0
1587045290948;-74;-36;38;55;-56;1;0;0;0;0;0
1587045290950;-69;-53;16;61;-42;-18;0;0;0;0;0
1587045290952;-72;-66;6;69;-39;-30;0;0;0;0;0
1587045290954;-71;-74;-3;72;-34;-38;0;0;0;0;0
1587045290956;-61;-67;-6;64;-27;-36;0;0;0;0;0
1587045290958;-52;-46;6;49;-29;-20;0;0;0;0;0
1587045290960;-51;-43;8;47;-29;-17;0;0;0;0;0
1587045290962;-44;-42;2;43;-23;-20;0;0;0;0;0
1587045290964;-36;-39;-3;37;-16;-21;0;0;0;0;0
1587045290966;-29;-27;2;28;-15;-12;0;0;0;0;0
1587045290968;-24;-12;12;18;-18;0;0;0;0;0;0
1587045290970;-26;-20;6;23;-16;-7;0;0;0;0;0
1587045290972;-30;-45;-15;37;-7;-30;0;0;0;0;0
1587045290974;-31;-69;-38;50;4;-53;0;0;0;0;0
1587045290976;-33;-70;-37;51;2;-53;0;0;0;0;0
1587045290978;-30;-61;-31;45;1;-46;0;0;0;0;0
1587045290980;-32;-63;-31;47;0;-47;0;0;0;0;0
1587045290982;-30;-62;-32;46;1;-47;0;0;0;0;0
1587045290984;-18;-52;-34;35;8;-43;0;0;0;0;0
1587045290986;-19;-45;-26;32;4;-35;0;0;0;0;0
1587045290988;-24;-38;-14;31;-5;-26;0;0;0;0;0
1587045290990;-24;-47;-23;35;0;-35;0;0;0;0;0
1587045290992;-23;-57;-34;40;6;-45;0;0;0;0;0
1587045290994;-23;-50;-27;36;2;-38;0;0;0;0;0
1587045290996;-23;-47;-24;35;1;-35;0;0;0;0;0
1587045290998;-24;-57;-33;40;5;-45;0;0;0;0;0
1587045291000;-24;-57;-33;40;5;-45;0;0;0;0;0
1587045291002;-17;-42;-25;29;4;-33;0;0;0;0;0
1587045291004;-10;-37;-27;23;9;-32;0;0;0;0;0
1587045291006;-4;-36;-32;20;14;-34;0;0;0;0;0
1587045291008;-4;-26;-22;15;9;-24;0;0;0;0;0
1587045291010;-7;-12;-5;9;-1;-8;0;0;0;0;0
1587045291012;-8;-10;-2;9;-3;-6;0;0;0;0;0
1587045291014;-15;-23;-8;19;-3;-15;0;0;0;0;0
1587045291016;-23;-35;-12;29;-5;-23;0;0;0;0;0
1587045291018;-20;-42;-22;31;1;-32;0;0;0;0;0
1587045291020;-20;-47;-27;33;4;-37;0;0;0;0;0
1587045291022;-23;-40;-17;31;-3;-28;0;0;0;0;0
1587045291024;-26;-36;-10;31;-8;-23;0;0;0;0;0
1587045291026;-28;-43;-15;35;-6;-29;0;0;0;0;0
1587045291028;-27;-39;-12;33;-7;-25;0;0;0;0;0
1587045291030;-25;-31;-6;28;-9;-18;0;0;0;0;0
1587045291032;-24;-29;-5;26;-9;-17;0;0;0;0;0
1587045291034;-20;-31;-11;25;-4;-21;0;0;0;0;0
1587045291036;-14;-43;-29;28;8;-36;0;0;0;0;0
1587045291038;-16;-54;-38;35;11;-46;0;0;0;0;0
1587045291040;-19;-50;-31;34;6;-40;0;0;0;0;0
1587045291042;-16;-42;-26;29;5;-34;0;0;0;0;0
1587045291044;-14;-44;-30;29;8;-37;0;0;0;0;0
1587045291046;-19;-51;-32;35;7;-41;0;0;0;0;0
1587045291048;-23;-48;-25;35;1;-36;0;0;0;0;0
1587045291050;-24;-37;-13;30;-5;-25;0;0;0;0;0
1587045291052;-14;-34;-20;24;3;-27;0;0;0;0;0
1587045291054;-11;-36;-25;23;7;-30;0;0;0;0;0
1587045291056;-14;-27;-13;20;0;-20;0;0;0;0;0
1587045291058;-13;-26;-13;19;0;-19;0;0;0;0;0
1587045291060;-21;-47;-26;34;3;-36;0;0;0;0;0
1587045291062;-24;-63;-39;43;8;-51;0;0;0;0;0
1587045291064;-16;-56;-40;36;12;-48;0;0;0;0;0
1587045291066;-11;-46;-35;28;12;-40;0;0;0;0;0
1587045291068;-15;-45;-30;30;8;-37;0;0;0;0;0
1587045291070;-14;-27;-13;20;0;-20;0;0;0;0;0
1587045291072;-8;-23;-15;15;4;-19;0;0;0;0;0
1587045291074;-3;-33;-30;18;14;-31;0;0;0;0;0
1587045291076;-3;-18;-15;10;6;-16;0;0;0;0;0
1587045291078;-5;5;10;0;-7;8;0;0;0;0;0
1587045291080;-11;10;21;0;-16;16;0;0;0;0;0
1587045291082;-12;3;15;4;-13;9;0;0;0;0;0
1587045291084;-1;13;14;-6;-7;14;0;0;0;0;0
1587045291086;4;24;20;-14;-8;22;0;0;0;0;0
1587045291088;-2;4;6;-1;-4;5;0;0;0;0;0
1587045291090;-3;-16;-13;9;5;-14;0;0;0;0;0
1587045291092;-4;-13;-9;8;3;-11;0;0;0;0;0
1587045291094;-12;-16;-4;14;-4;-10;0;0;0;0;0
1587045291096;-9;-26;-17;17;4;-21;0;0;0;0;0
1587045291098;-2;-28;-26;15;12;-27;0;0;0;0;0
1587045291100;-3;-29;-26;16;12;-27;0;0;0;0;0
1587045291102;-6;-27;-21;16;8;-24;0;0;0;0;0
1587045291104;-10;-24;-14;17;2;-19;0;0;0;0;0
1587045291106;-11;-16;-5;13;-3;-10;0;0;0;0;0
1587045291108;-2;-14;-12;8;5;-13;0;0;0;0;0
1587045291110;7;-18;-25;5;16;-21;0;0;0;0;0
1587045291112;7;-17;-24;5;16;-20;0;0;0;0;0
1587045291114;8;-9;-17;0;13;-13;0;0;0;0;0
1587045291116;14;-4;-18;-5;16;-11;0;0;0;0;0
1587045291118;12;-2;-14;-5;13;-8;0;0;0;0;0
1587045291120;15;13;-2;-14;9;6;0;0;0;0;0
1587045291122;16;20;4;-18;6;12;0;0;0;0;0
1587045291124;12;22;10;-17;1;16;0;0;0;0;0
1587045291126;14;27;13;-21;1;20;0;0;0;0;0
1587045291128;11;11;0;-11;6;6;0;0;0;0;0
1587045291130;11;-8;-19;-2;15;-13;0;0;0;0;0
1587045291132;16;-8;-24;-4;20;-16;0;0;0;0;0
1587045291134;17;2;-15;-10;16;-6;0;0;0;0;0
1587045291136;20;11;-9;-16;15;1;0;0;0;0;0
1587045291138;20;34;14;-27;3;24;0;0;0;0;0
1587045291140;22;42;20;-32;1;31;0;0;0;0;0
1587045291142;22;16;-6;-19;14;5;0;0;0;0;0
1587045291144;22;0;-22;-11;22;-11;0;0;0;0;0
1587045291146;38;17;-21;-28;30;-2;0;0;0;0;0
1587045291148;42;32;-10;-37;26;11;0;0;0;0;0
1587045291150;31;42;11;-37;10;27;0;0;0;0;0
1587045291152;34;53;19;-44;8;36;0;0;0;0;0
1587045291154;48;49;1;-49;24;25;0;0;0;0;0
1587045291156;58;50;-8;-54;33;21;0;0;0;0;0
1587045291158;47;41;-6;-44;27;18;0;0;0;0;0
1587045291160;44;28;-16;-36;30;6;0;0;0;0;0
1587045291162;53;29;-24;-41;39;3;0;0;0;0;0
1587045291164;53;43;-10;-48;32;17;0;0;0;0;0
1587045291166;58;56;-2;-57;30;27;0;0;0;0;0
1587045291168;61;61;0;-61;31;31;0;0;0;0;0
1587045291170;59;64;5;-62;27;35;0;0;0;0;0
1587045291172;56;62;6;-59;25;34;0;0;0;0;0
1587045291174;54;64;10;-59;22;37;0;0;0;0;0
1587045291176;55;75;20;-65;18;48;0;0;0;0;0
1587045291178;53;84;31;-69;11;58;0;0;0;0;0
1587045291180;55;87;32;-71;12;60;0;0;0;0;0
1587045291182;64;84;20;-74;22;52;0;0;0;0;0
1587045291184;68;81;13;-75;28;47;0;0;0;0;0
1587045291186;65;77;12;-71;27;45;0;0;0;0;0
1587045291188;65;76;11;-71;27;44;0;0;0;0;0
1587045291190;72;87;15;-80;29;51;0;0;0;0;0
1587045291192;72;97;25;-85;24;61;0;0;0;0;0
1587045291194;67;114;47;-91;10;81;0;0;0;0;0
1587045291196;66;116;50;-91;8;83;0;0;0;0;0
1587045291198;66;102;36;-84;15;69;0;0;0;0;0
1587045291200;63;104;41;-84;11;73;0;0;0;0;0
1587045291202;60;104;44;-82;8;74;0;0;0;0;0
1587045291204;58;94;36;-76;11;65;0;0;0;0;0
1587045291206;56;97;41;-77;8;69;0;0;0;0;0
1587045291208;56;108;52;-82;2;80;0;0;0;0;0
1587045291210;59;106;47;-83;6;77;0;0;0;0;0
1587045291212;59;105;46;-82;7;76;0;0;0;0;0
1587045291214;54;99;45;-77;5;72;0;0;0;0;0
1587045291216;43;67;24;-55;10;46;0;0;0;0;0
1587045291218;37;47;10;-42;14;29;0;0;0;0;0
1587045291220;39;54;15;-47;12;35;0;0;0;0;0
1587045291222;37;57;20;-47;9;39;0;0;0;0;0
1587045291224;31;64;33;-48;-1;49;0;0;0;0;0
1587045291226;29;80;51;-55;-11;66;0;0;0;0;0
1587045291228;27;75;48;-51;-10;62;0;0;0;0;0
1587045291230;23;49;26;-36;-1;38;0;0;0;0;0
1587045291232;20;33;13;-27;4;23;0;0;0;0;0
1587045291234;11;46;35;-29;-12;41;0;0;0;0;0
1587045291236;10;64;54;-37;-22;59;0;0;0;0;0
1587045291238;8;43;35;-26;-13;39;0;0;0;0;0
1587045291240;9;10;1;-10;4;6;0;0;0;0;0
1587045291242;9;3;-6;-6;8;-1;0;0;0;0;0
1587045291244;-1;19;20;-9;-10;20;0;0;0;0;0
1587045291246;-2;19;21;-9;-11;20;0;0;0;0;0
1587045291248;3;3;0;-3;2;2;0;0;0;0;0
1587045291250;4;-3;-7;-1;6;-5;0;0;0;0;0
1587045291252;-11;-16;-5;13;-3;-10;0;0;0;0;0
1587045291254;-23;-25;-2;24;-10;-13;0;0;0;0;0
1587045291256;-23;-20;3;21;-13;-8;0;0;0;0;0
1587045291258;-20;-12;8;16;-14;-2;0;0;0;0;0
1587045291260;-13;-7;6;10;-9;0;0;0;0;0;0
1587045291262;-5;2;7;1;-6;5;0;0;0;0;0
1587045291264;-6;7;13;-1;-9;10;0;0;0;0;0
1587045291266;-7;-7;0;7;-3;-3;0;0;0;0;0
1587045291268;-8;-18;-10;13;1;-14;0;0;0;0;0
1587045291270;-16;-14;2;15;-9;-6;0;0;0;0;0
1587045291272;-21;-13;8;17;-14;-2;0;0;0;0;0
1587045291274;-21;-10;11;15;-16;1;0;0;0;0;0
1587045291276;-22;-6;16;14;-19;5;0;0;0;0;0
1587045291278;-26;-17;9;21;-17;-4;0;0;0;0;0
1587045291280;-30;-24;6;27;-18;-9;0;0;0;0;0
1587045291282;-27;-7;20;17;-23;7;0;0;0;0;0
1587045291284;-21;2;23;9;-22;13;0;0;0;0;0
1587045291286;-24;-8;16;16;-20;4;0;0;0;0;0
1587045291288;-31;-25;6;28;-18;-9;0;0;0;0;0
1587045291290;-33;-46;-13;39;-10;-29;0;0;0;0;0
1587045291292;-33;-33;0;33;-16;-16;0;0;0;0;0
1587045291294;-34;-5;29;19;-31;12;0;0;0;0;0
1587045291296;-37;-9;28;23;-32;10;0;0;0;0;0
1587045291298;-39;-25;14;32;-26;-5;0;0;0;0;0
1587045291300;-35;-22;13;28;-24;-4;0;0;0;0;0
1587045291302;-29;-26;3;27;-16;-11;0;0;0;0;0
1587045291304;-26;-26;0;26;-13;-13;0;0;0;0;0
1587045291306;-28;-10;18;19;-23;4;0;0;0;0;0
1587045291308;-31;-6;25;18;-28;10;0;0;0;0;0
1587045291310;-31;-3;28;17;-29;13;0;0;0;0;0
1587045291312;-29;1;30;14;-29;16;0;0;0;0;0
1587045291314;-23;-7;16;15;-19;5;0;0;0;0;0
1587045291316;-23;-21;2;22;-12;-9;0;0;0;0;0
1587045291318;-31;-28;3;29;-17;-12;0;0;0;0;0
1587045291320;-40;-28;12;34;-26;-8;0;0;0;0;0
1587045291322;-38;-29;9;33;-23;-10;0;0;0;0;0
1587045291324;-34;-32;2;33;-18;-15;0;0;0;0;0
1587045291326;-31;-25;6;28;-18;-9;0;0;0;0;0
1587045291328;-28;-15;13;21;-20;-1;0;0;0;0;0
1587045291330;-35;-16;19;25;-27;2;0;0;0;0;0
1587045291332;-37;-27;10;32;-23;-8;0;0;0;0;0
1587045291334;-43;-38;5;40;-24;-16;0;0;0;0;0
1587045291336;-48;-31;17;39;-32;-7;0;0;0;0;0
1587045291338;-26;-16;10;21;-18;-3;0;0;0;0;0
1587045291340;-12;-15;-3;13;-4;-9;0;0;0;0;0
1587045291342;-21;-19;2;20;-11;-8;0;0;0;0;0
1587045291344;-30;-19;11;24;-20;-4;0;0;0;0;0
1587045291346;-33;-22;11;27;-22;-5;0;0;0;0;0
1587045291348;-29;-20;9;24;-19;-5;0;0;0;0;0
1587045291350;-32;-10;22;21;-27;6;0;0;0;0;0
1587045291352;-36;-11;25;23;-30;7;0;0;0;0;0
1587045291354;-22;-24;-2;23;-10;-13;0;0;0;0;0
1587045291356;-10;-19;-9;14;0;-14;0;0;0;0;0
1587045291358;-16;-11;5;13;-10;-3;0;0;0;0;0
1587045291360;-30;-20;10;25;-20;-5;0;0;0;0;0
1587045291362;-32;-26;6;29;-19;-10;0;0;0;0;0
1587045291364;-32;-27;5;29;-18;-11;0;0;0;0;0
1587045291366;-33;-25;8;29;-20;-8;0;0;0;0;0
1587045291368;-27;-18;9;22;-18;-4;0;0;0;0;0
1587045291370;-25;-13;12;19;-18;0;0;0;0;0;0
1587045291372;-30;-21;9;25;-19;-6;0;0;0;0;0
1587045291374;-31;-26;5;28;-18;-10;0;0;0;0;0
1587045291376;-27;-18;9;22;-18;-4;0;0;0;0;0
1587045291378;-28;-21;7;24;-17;-7;0;0;0;0;0
1587045291380;-29;-24;5;26;-17;-9;0;0;0;0;0
1587045291382;-32;-18;14;25;-23;-2;0;0;0;0;0
1587045291384;-35;-15;20;25;-27;3;0;0;0;0;0
1587045291386;-32;-13;19;22;-25;3;0;0;0;0;0
1587045291388;-27;-13;14;20;-20;1;0;0;0;0;0
1587045291390;-24;-20;4;22;-14;-8;0;0;0;0;0
1587045291392;-25;-18;7;21;-16;-5;0;0;0;0;0
1587045291394;-26;-8;18;17;-22;5;0;0;0;0;0
1587045291396;-28;-15;13;21;-20;-1;0;0;0;0;0
1587045291398;-23;-25;-2;24;-10;-13;0;0;0;0;0
1587045291400;-16;-27;-11;21;-2;-19;0;0;0;0;0
1587045291402;-24;-27;-3;25;-10;-15;0;0;0;0;0
1587045291404;-35;-27;8;31;-21;-9;0;0;0;0;0
1587045291406;-40;-35;5;37;-22;-15;0;0;0;0;0
1587045291408;-31;-40;-9;35;-11;-24;0;0;0;0;0
1587045291410;-25;-29;-4;27;-10;-16;0;0;0;0;0
1587045291412;-31;-20;11;25;-21;-4;0;0;0;0;0
1587045291414;-31;-18;13;24;-22;-2;0;0;0;0;0
1587045291416;-29;-20;9;24;-19;-5;0;0;0;0;0
1587045291418;-30;-32;-2;31;-14;-17;0;0;0;0;0
1587045291420;-24;-38;-14;31;-5;-26;0;0;0;0;0
1587045291422;-17;-28;-11;22;-3;-19;0;0;0;0;0
1587045291424;-17;-4;13;10;-15;5;0;0;0;0;0
1587045291426;-16;13;29;1;-22;21;0;0;0;0;0
1587045291428;-13;2;15;5;-14;9;0;0;0;0;0
1587045291430;-15;-11;4;13;-9;-3;0;0;0;0;0
1587045291432;-16;-13;3;14;-9;-5;0;0;0;0;0
1587045291434;-24;-21;3;22;-13;-9;0;0;0;0;0
1587045291436;-45;-23;22;34;-33;0;0;0;0;0;0
1587045291438;-51;-20;31;35;-41;6;0;0;0;0;0
1587045291440;-42;-22;20;32;-31;-1;0;0;0;0;0
1587045291442;-24;-22;2;23;-13;-10;0;0;0;0;0
1587045291444;-3;-24;-21;13;9;-22;0;0;0;0;0
1587045291446;0;-26;-26;13;13;-26;0;0;0;0;0
1587045291448;-13;-17;-4;15;-4;-10;0;0;0;0;0
1587045291450;-41;-17;24;29;-32;4;0;0;0;0;0
1587045291452;-58;-39;19;48;-38;-10;0;0;0;0;0
1587045291454;-43;-53;-10;48;-16;-31;0;0;0;0;0
1587045291456;-36;-51;-15;43;-10;-33;0;0;0;0;0
1587045291458;-46;-43;3;44;-24;-20;0;0;0;0;0
1587045291460;-31;-43;-12;37;-9;-27;0;0;0;0;0
1587045291462;-16;-40;-24;28;4;-32;0;0;0;0;0
1587045291464;-18;-38;-20;28;1;-29;0;0;0;0;0
1587045291466;-11;-49;-38;30;14;-43;0;0;0;0;0
1587045291468;-12;-51;-39;31;14;-45;0;0;0;0;0
1587045291470;-33;-38;-5;35;-14;-21;0;0;0;0;0
1587045291472;-45;-32;13;38;-29;-9;0;0;0;0;0
1587045291474;-31;-38;-7;34;-12;-22;0;0;0;0;0
1587045291476;-14;-41;-27;27;7;-34;0;0;0;0;0
1587045291478;-5;-35;-30;20;13;-32;0;0;0;0;0
1587045291480;-3;-25;-22;14;10;-23;0;0;0;0;0
1587045291482;-19;-16;3;17;-11;-6;0;0;0;0;0
1587045291484;-36;-24;12;30;-24;-6;0;0;0;0;0
1587045291486;-24;-40;-16;32;-4;-28;0;0;0;0;0
1587045291488;0;-48;-48;24;24;-48;0;0;0;0;0
1587045291490;4;-51;-55;23;30;-53;0;0;0;0;0
1587045291492;6;-43;-49;18;28;-46;0;0;0;0;0
1587045291494;9;-32;-41;11;25;-36;0;0;0;0;0
1587045291496;-1;-41;-40;21;20;-40;0;0;0;0;0
1587045291498;9;-53;-62;22;36;-57;0;0;0;0;0
1587045291500;26;-40;-66;7;46;-53;0;0;0;0;0
1587045291502;13;-30;-43;8;28;-36;0;0;0;0;0
1587045291504;-25;-38;-13;31;-6;-25;0;0;0;0;0
1587045291506;-69;-39;30;54;-49;-4;0;0;0;0;0
1587045291508;-76;-41;35;58;-55;-3;0;0;0;0;0
1587045291510;-48;-56;-8;52;-20;-32;0;0;0;0;0
1587045291512;-23;-51;-28;37;3;-39;0;0;0;0;0
1587045291514;-8;-30;-22;19;7;-26;0;0;0;0;0
1587045291516;-22;-37;-15;29;-3;-26;0;0;0;0;0
1587045291518;-42;-42;0;42;-21;-21;0;0;0;0;0
1587045291520;-20;-35;-15;27;-2;-25;0;0;0;0;0
1587045291522;16;-31;-47;7;32;-39;0;0;0;0;0
1587045291524;42;-32;-74;-5;58;-53;0;0;0;0;0
1587045291526;28;-40;-68;6;48;-54;0;0;0;0;0
1587045291528;-24;-49;-25;36;1;-37;0;0;0;0;0
1587045291530;-45;-49;-4;47;-20;-26;0;0;0;0;0
1587045291532;-76;-44;32;60;-54;-6;0;0;0;0;0
1587045291534;-121;-46;75;83;-98;15;0;0;0;0;0
1587045291536;-118;-47;71;82;-94;12;0;0;0;0;0
1587045291538;-60;-43;17;51;-38;-13;0;0;0;0;0
1587045291540;22;-40;-62;9;42;-51;0;0;0;0;0
1587045291542;80;-41;-121;-20;101;-81;0;0;0;0;0
1587045291544;57;-40;-97;-9;77;-68;0;0;0;0;0
1587045291546;-12;-29;-17;20;3;-23;0;0;0;0;0
1587045291548;-64;-30;34;47;-49;2;0;0;0;0;0
1587045291550;-80;-43;37;61;-58;-3;0;0;0;0;0
1587045291552;-54;-46;8;50;-31;-19;0;0;0;0;0
1587045291554;-36;-21;15;28;-25;-3;0;0;0;0;0
1587045291556;-40;-3;37;21;-38;17;0;0;0;0;0
1587045291558;-54;-20;34;37;-44;7;0;0;0;0;0
1587045291560;-64;-41;23;52;-43;-9;0;0;0;0;0
1587045291562;-67;-58;9;62;-38;-24;0;0;0;0;0
1587045291564;-65;-54;11;59;-38;-21;0;0;0;0;0
1587045291566;-71;-45;26;58;-48;-9;0;0;0;0;0
1587045291568;-84;-43;41;63;-62;-1;0;0;0;0;0
1587045291570;-85;-33;52;59;-68;10;0;0;0;0;0
1587045291572;-73;-30;43;51;-58;7;0;0;0;0;0
1587045291574;-62;-34;28;48;-45;-3;0;0;0;0;0
1587045291576;-67;-41;26;54;-46;-7;0;0;0;0;0
1587045291578;-76;-57;19;66;-47;-19;0;0;0;0;0
1587045291580;-55;-67;-12;61;-21;-39;0;0;0;0;0
1587045291582;-49;-56;-7;52;-21;-31;0;0;0;0;0
1587045291584;-90;-37;53;63;-71;8;0;0;0;0;0
1587045291586;-99;-27;72;63;-85;23;0;0;0;0;0
1587045291588;-66;-40;26;53;-46;-7;0;0;0;0;0
1587045291590;-41;-49;-8;45;-16;-28;0;0;0;0;0
1587045291592;-31;-35;-4;33;-13;-19;0;0;0;0;0
1587045291594;-35;-15;20;25;-27;3;0;0;0;0;0
1587045291596;-61;-6;55;33;-58;25;0;0;0;0;0
1587045291598;-93;-19;74;56;-83;28;0;0;0;0;0
1587045291600;-94;-40;54;67;-74;7;0;0;0;0;0
1587045291602;-76;-59;17;67;-46;-21;0;0;0;0;0
1587045291604;-66;-70;-4;68;-31;-37;0;0;0;0;0
1587045291606;-48;-58;-10;53;-19;-34;0;0;0;0;0
1587045291608;-58;-56;2;57;-30;-27;0;0;0;0;0
1587045291610;-66;-50;16;58;-41;-17;0;0;0;0;0
1587045291612;-35;-27;8;31;-21;-9;0;0;0;0;0
1587045291614;-20;-16;4;18;-12;-6;0;0;0;0;0
1587045291616;-35;-20;15;27;-25;-2;0;0;0;0;0
1587045291618;-36;-26;10;31;-23;-8;0;0;0;0;0
1587045291620;-27;-15;12;21;-19;-1;0;0;0;0;0
1587045291622;-46;-15;31;30;-38;8;0;0;0;0;0
1587045291624;-74;-29;45;51;-59;8;0;0;0;0;0
1587045291626;-83;-28;55;55;-69;14;0;0;0;0;0
1587045291628;-56;-19;37;37;-46;9;0;0;0;0;0
1587045291630;-16;-18;-2;17;-7;-10;0;0;0;0;0
1587045291632;-10;-17;-7;13;-1;-12;0;0;0;0;0
1587045291634;-31;-17;14;24;-22;-1;0;0;0;0;0
1587045291636;-49;-21;28;35;-38;4;0;0;0;0;0
1587045291638;-57;-27;30;42;-43;2;0;0;0;0;0
1587045291640;-51;-15;36;33;-43;11;0;0;0;0;0
1587045291642;-28;10;38;9;-33;24;0;0;0;0;0
1587045291644;-27;12;39;7;-33;26;0;0;0;0;0
1587045291646;-55;11;66;22;-60;39;0;0;0;0;0
1587045291648;-70;11;81;29;-75;46;0;0;0;0;0
1587045291650;-60;5;65;27;-62;35;0;0;0;0;0
1587045291652;-36;7;43;14;-39;25;0;0;0;0;0
1587045291654;-26;15;41;5;-33;28;0;0;0;0;0
1587045291656;-27;24;51;1;-39;38;0;0;0;0;0
1587045291658;-19;26;45;-4;-32;36;0;0;0;0;0
1587045291660;-15;37;52;-11;-33;45;0;0;0;0;0
1587045291662;-23;45;68;-11;-45;57;0;0;0;0;0
1587045291664;-26;40;66;-7;-46;53;0;0;0;0;0
1587045291666;-20;33;53;-7;-36;43;0;0;0;0;0
1587045291668;-9;41;50;-16;-29;46;0;0;0;0;0
1587045291670;11;39;28;-25;-8;34;0;0;0;0;0
1587045291672;27;13;-14;-20;21;0;0;0;0;0;0
1587045291674;28;1;-27;-15;28;-13;0;0;0;0;0
1587045291676;4;-1;-5;-2;5;-3;0;0;0;0;0
1587045291678;-3;-7;-4;5;1;-5;0;0;0;0;0
1587045291680;10;-8;-18;-1;14;-13;0;0;0;0;0
1587045291682;7;-4;-11;-2;9;-7;0;0;0;0;0
1587045291684;0;16;16;-8;-8;16;0;0;0;0;0
1587045291686;-3;24;27;-11;-15;26;0;0;0;0;0
1587045291688;-3;8;11;-3;-7;10;0;0;0;0;0
1587045291690;-1;0;1;0;-1;1;0;0;0;0;0
1587045291692;-8;-8;0;8;-4;-4;0;0;0;0;0
1587045291694;-29;-21;8;25;-18;-6;0;0;0;0;0
1587045291696;-45;-28;17;36;-31;-5;0;0;0;0;0
1587045291698;-49;-29;20;39;-34;-4;0;0;0;0;0
1587045291700;-36;-43;-7;39;-14;-25;0;0;0;0;0
1587045291702;-24;-55;-31;39;4;-43;0;0;0;0;0
1587045291704;-16;-38;-22;27;3;-30;0;0;0;0;0
1587045291706;-19;3;22;8;-20;13;0;0;0;0;0
1587045291708;-43;20;63;11;-53;42;0;0;0;0;0
1587045291710;-58;-1;57;29;-57;28;0;0;0;0;0
1587045291712;-46;-19;27;32;-36;4;0;0;0;0;0
1587045291714;-35;-40;-5;37;-15;-22;0;0;0;0;0
1587045291716;-41;-61;-20;51;-10;-40;0;0;0;0;0
1587045291718;-46;-79;-33;62;-6;-56;0;0;0;0;0
1587045291720;-53;-80;-27;66;-13;-53;0;0;0;0;0
1587045291722;-45;-62;-17;53;-14;-39;0;0;0;0;0
1587045291724;-25;-44;-19;34;-3;-31;0;0;0;0;0
1587045291726;-10;-24;-14;17;2;-19;0;0;0;0;0
1587045291728;-16;-25;-9;20;-3;-17;0;0;0;0;0
1587045291730;-26;-36;-10;31;-8;-23;0;0;0;0;0
1587045291732;-20;-47;-27;33;4;-37;0;0;0;0;0
1587045291734;-14;-47;-33;30;10;-40;0;0;0;0;0
1587045291736;-18;-33;-15;25;-1;-24;0;0;0;0;0
1587045291738;-17;-31;-14;24;-1;-22;0;0;0;0;0
1587045291740;-7;-43;-36;25;15;-39;0;0;0;0;0
1587045291742;-5;-42;-37;23;16;-39;0;0;0;0;0
1587045291744;-12;-28;-16;20;2;-22;0;0;0;0;0
1587045291746;-18;-46;-28;32;5;-37;0;0;0;0;0
1587045291748;-10;-74;-64;42;27;-69;0;0;0;0;0
1587045291750;-16;-72;-56;44;20;-64;0;0;0;0;0
1587045291752;-36;-55;-19;45;-8;-37;0;0;0;0;0
1587045291754;-31;-26;5;28;-18;-10;0;0;0;0;0
1587045291756;-24;9;33;7;-28;21;0;0;0;0;0
1587045291758;-31;-3;28;17;-29;13;0;0;0;0;0
1587045291760;-23;-38;-15;30;-4;-26;0;0;0;0;0
1587045291762;-19;-55;-36;37;9;-45;0;0;0;0;0
1587045291764;-27;-71;-44;49;9;-57;0;0;0;0;0
1587045291766;-17;-78;-61;47;22;-69;0;0;0;0;0
1587045291768;-7;-83;-76;45;35;-79;0;0;0;0;0
1587045291770;-30;-103;-73;66;22;-88;0;0;0;0;0
1587045291772;-47;-124;-77;85;15;-100;0;0;0;0;0
1587045291774;-48;-137;-89;92;21;-113;0;0;0;0;0
1587045291776;-64;-133;-69;98;3;-101;0;0;0;0;0
1587045291778;-67;-113;-46;90;-10;-79;0;0;0;0;0
1587045291780;-59;-96;-37;77;-11;-66;0;0;0;0;0
1587045291782;-31;-81;-50;56;10;-65;0;0;0;0;0
1587045291784;18;-67;-85;24;52;-76;0;0;0;0;0
1587045291786;46;-43;-89;-2;68;-66;0;0;0;0;0
1587045291788;88;3;-85;-46;87;-41;0;0;0;0;0
1587045291790;146;61;-85;-104;116;-12;0;0;0;0;0
1587045291792;157;117;-40;-137;99;39;0;0;0;0;0
1587045291794;154;186;32;-170;61;109;0;0;0;0;0
1587045291796;195;285;90;-240;53;188;0;0;0;0;0
1587045291798;244;390;146;-317;49;268;0;0;0;0;0
1587045291800;266;477;211;-372;28;344;0;0;0;0;0
1587045291802;243;551;308;-397;-32;430;0;0;0;0;0
1587045291804;189;614;425;-402;-118;520;0;0;0;0;0
1587045291806;147;663;516;-405;-184;590;0;0;0;0;0
1587045291808;117;700;583;-409;-233;642;0;0;0;0;0
1587045291810;78;699;621;-389;-271;660;0;0;0;0;0
1587045291812;37;634;597;-336;-280;616;0;0;0;0;0
1587045291814;-1;537;538;-268;-269;538;0;0;0;0;0
1587045291816;-42;417;459;-188;-250;438;0;0;0;0;0
1587045291818;-58;291;349;-117;-203;320;0;0;0;0;0
1587045291820;-49;210;259;-81;-154;235;0;0;0;0;0
1587045291822;-33;160;193;-64;-113;177;0;0;0;0;0
1587045291824;-34;108;142;-37;-88;125;0;0;0;0;0
1587045291826;-53;47;100;3;-76;74;0;0;0;0;0
1587045291828;-59;0;59;29;-59;30;0;0;0;0;0
1587045291830;-62;-18;44;40;-53;13;0;0;0;0;0
1587045291832;-65;-6;59;35;-62;27;0;0;0;0;0
1587045291834;-61;0;61;30;-61;31;0;0;0;0;0
1587045291836;-60;-39;21;49;-40;-9;0;0;0;0;0
1587045291838;-77;-80;-3;78;-37;-41;0;0;0;0;0
1587045291840;-77;-72;5;74;-41;-33;0;0;0;0;0
1587045291842;-47;-54;-7;50;-20;-30;0;0;0;0;0
1587045291844;-20;-46;-26;33;3;-36;0;0;0;0;0
1587045291846;-11;-40;-29;25;9;-34;0;0;0;0;0
1587045291848;-11;-36;-25;23;7;-30;0;0;0;0;0
1587045291850;-7;-34;-27;20;10;-30;0;0;0;0;0
1587045291852;-3;-35;-32;19;15;-33;0;0;0;0;0
1587045291854;2;-39;-41;18;22;-40;0;0;0;0;0
1587045291856;-9;-55;-46;32;19;-50;0;0;0;0;0
1587045291858;-26;-59;-33;42;4;-46;0;0;0;0;0
1587045291860;-23;-35;-12;29;-5;-23;0;0;0;0;0
1587045291862;6;-1;-7;-3;7;-4;0;0;0;0;0
1587045291864;10;-2;-12;-4;11;-7;0;0;0;0;0
1587045291866;-22;-35;-13;28;-4;-24;0;0;0;0;0
1587045291868;-38;-67;-29;52;-4;-48;0;0;0;0;0
1587045291870;-23;-80;-57;51;17;-68;0;0;0;0;0
1587045291872;-7;-71;-64;39;29;-67;0;0;0;0;0
1587045291874;-4;-58;-54;31;25;-56;0;0;0;0;0
1587045291876;-11;-46;-35;28;12;-40;0;0;0;0;0
1587045291878;-20;-37;-17;28;-1;-27;0;0;0;0;0
1587045291880;-18;-37;-19;27;1;-28;0;0;0;0;0
1587045291882;-12;-53;-41;32;15;-47;0;0;0;0;0
1587045291884;3;-59;-62;28;33;-60;0;0;0;0;0
1587045291886;6;-50;-56;22;31;-53;0;0;0;0;0
1587045291888;-10;-44;-34;27;12;-39;0;0;0;0;0
1587045291890;-24;-43;-19;33;-2;-31;0;0;0;0;0
1587045291892;-9;-46;-37;27;14;-41;0;0;0;0;0
1587045291894;17;-48;-65;15;41;-56;0;0;0;0;0
1587045291896;1;-43;-44;21;23;-43;0;0;0;0;0
1587045291898;-22;-38;-16;30;-3;-27;0;0;0;0;0
1587045291900;-28;-50;-22;39;-3;-36;0;0;0;0;0
1587045291902;-34;-60;-26;47;-4;-43;0;0;0;0;0
1587045291904;-33;-55;-22;44;-5;-38;0;0;0;0;0
1587045291906;-31;-51;-20;41;-5;-35;0;0;0;0;0
1587045291908;-17;-41;-24;29;4;-32;0;0;0;0;0
1587045291910;3;-34;-37;15;20;-35;0;0;0;0;0
1587045291912;4;-28;-32;12;18;-30;0;0;0;0;0
1587045291914;2;-27;-29;12;16;-28;0;0;0;0;0
1587045291916;7;-30;-37;11;22;-33;0;0;0;0;0
1587045291918;8;-36;-44;14;26;-40;0;0;0;0;0
1587045291920;14;-56;-70;21;42;-63;0;0;0;0;0
1587045291922;7;-69;-76;31;42;-72;0;0;0;0;0
1587045291924;-5;-57;-52;31;24;-54;0;0;0;0;0
1587045291926;15;-44;-59;14;37;-51;0;0;0;0;0
1587045291928;28;-26;-54;-1;41;-40;0;0;0;0;0
1587045291930;9;-12;-21;1;15;-16;0;0;0;0;0
1587045291932;-6;-26;-20;16;7;-23;0;0;0;0;0
1587045291934;-19;-20;-1;19;-9;-10;0;0;0;0;0
1587045291936;-41;-14;27;27;-34;7;0;0;0;0;0
1587045291938;-35;-28;7;31;-21;-10;0;0;0;0;0
1587045291940;-15;-34;-19;24;2;-26;0;0;0;0;0
1587045291942;-19;-38;-19;28;0;-28;0;0;0;0;0
1587045291944;-23;-41;-18;32;-2;-29;0;0;0;0;0
1587045291946;-11;-35;-24;23;7;-29;0;0;0;0;0
1587045291948;-7;-29;-22;18;8;-25;0;0;0;0;0
1587045291950;1;-30;-31;14;16;-30;0;0;0;0;0
1587045291952;16;-31;-47;7;32;-39;0;0;0;0;0
1587045291954;7;-33;-40;13;24;-36;0;0;0;0;0
1587045291956;-7;-29;-22;18;8;-25;0;0;0;0;0
1587045291958;-8;-12;-4;10;-2;-8;0;0;0;0;0
1587045291960;6;-5;-11;-1;9;-8;0;0;0;0;0
1587045291962;12;-15;-27;1;20;-21;0;0;0;0;0
1587045291964;8;-24;-32;8;20;-28;0;0;0;0;0
1587045291966;10;-23;-33;6;22;-28;0;0;0;0;0
1587045291968;2;-29;-31;13;17;-30;0;0;0;0;0
1587045291970;-6;-60;-54;33;24;-57;0;0;0;0;0
1587045291972;25;-67;-92;21;59;-79;0;0;0;0;0
1587045291974;41;-34;-75;-4;58;-54;0;0;0;0;0
1587045291976;10;-8;-18;-1;14;-13;0;0;0;0;0
1587045291978;17;-11;-28;-3;23;-19;0;0;0;0;0
1587045291980;36;-9;-45;-14;41;-27;0;0;0;0;0
1587045291982;-8;-11;-3;9;-2;-7;0;0;0;0;0
1587045291984;-36;-27;9;31;-22;-9;0;0;0;0;0
1587045291986;-14;-17;-3;15;-5;-10;0;0;0;0;0
1587045291988;-10;-3;7;6;-8;2;0;0;0;0;0
1587045291990;-18;-7;11;12;-14;2;0;0;0;0;0
1587045291992;-5;-14;-9;9;2;-11;0;0;0;0;0
1587045291994;11;-16;-27;2;19;-21;0;0;0;0;0
1587045291996;1;-13;-14;6;8;-13;0;0;0;0;0
1587045291998;-7;-14;-7;10;0;-10;0;0;0;0;0
1587045292000;-8;-21;-13;14;3;-17;0;0;0;0;0
1587045292002;3;-13;-16;5;10;-14;0;0;0;0;0
1587045292004;20;6;-14;-13;17;-4;0;0;0;0;0
1587045292006;8;17;9;-13;0;13;0;0;0;0;0
1587045292008;-17;9;26;4;-21;18;0;0;0;0;0
1587045292010;-19;-3;16;11;-17;7;0;0;0;0;0
1587045292012;-13;11;24;1;-18;18;0;0;0;0;0
1587045292014;4;21;17;-13;-6;19;0;0;0;0;0
1587045292016;40;16;-24;-28;32;-4;0;0;0;0;0
1587045292018;58;16;-42;-37;50;-13;0;0;0;0;0
1587045292020;51;17;-34;-34;43;-8;0;0;0;0;0
1587045292022;26;21;-5;-24;16;8;0;0;0;0;0
1587045292024;5;21;16;-13;-5;19;0;0;0;0;0
1587045292026;1;19;18;-10;-8;19;0;0;0;0;0
1587045292028;22;20;-2;-21;12;9;0;0;0;0;0
1587045292030;29;20;-9;-25;19;6;0;0;0;0;0
1587045292032;34;27;-7;-31;21;10;0;0;0;0;0
1587045292034;61;38;-23;-50;42;8;0;0;0;0;0
1587045292036;53;34;-19;-44;36;8;0;0;0;0;0
1587045292038;36;25;-11;-31;24;7;0;0;0;0;0
1587045292040;27;40;13;-34;7;27;0;0;0;0;0
1587045292042;20;61;41;-41;-10;51;0;0;0;0;0
1587045292044;44;71;27;-58;9;49;0;0;0;0;0
1587045292046;53;74;21;-64;16;48;0;0;0;0;0
1587045292048;35;80;45;-58;-5;63;0;0;0;0;0
1587045292050;35;73;38;-54;-1;56;0;0;0;0;0
1587045292052;60;52;-8;-56;34;22;0;0;0;0;0
1587045292054;92;46;-46;-69;69;0;0;0;0;0;0
1587045292056;99;68;-31;-84;65;19;0;0;0;0;0
1587045292058;55;88;33;-72;11;61;0;0;0;0;0
1587045292060;-4;75;79;-36;-41;77;0;0;0;0;0
1587045292062;-13;60;73;-24;-43;67;0;0;0;0;0
1587045292064;14;67;53;-41;-19;60;0;0;0;0;0
1587045292066;50;89;39;-70;6;64;0;0;0;0;0
1587045292068;80;102;22;-91;29;62;0;0;0;0;0
1587045292070;93;108;15;-101;39;62;0;0;0;0;0
1587045292072;74;101;27;-88;24;64;0;0;0;0;0
1587045292074;45;89;44;-67;1;67;0;0;0;0;0
1587045292076;25;91;66;-58;-20;79;0;0;0;0;0
1587045292078;-2;91;93;-45;-47;92;0;0;0;0;0
1587045292080;-6;94;100;-44;-53;97;0;0;0;0;0
1587045292082;12;100;88;-56;-38;94;0;0;0;0;0
1587045292084;33;95;62;-64;-14;79;0;0;0;0;0
1587045292086;53;101;48;-77;3;75;0;0;0;0;0
1587045292088;48;105;57;-77;-4;81;0;0;0;0;0
1587045292090;36;92;56;-64;-10;74;0;0;0;0;0
1587045292092;42;98;56;-70;-7;77;0;0;0;0;0
1587045292094;36;100;64;-68;-14;82;0;0;0;0;0
1587045292096;17;84;67;-51;-25;76;0;0;0;0;0
1587045292098;0;79;79;-40;-39;79;0;0;0;0;0
1587045292100;0;80;80;-40;-40;80;0;0;0;0;0
1587045292102;18;77;59;-48;-20;68;0;0;0;0;0
1587045292104;9;70;61;-40;-26;66;0;0;0;0;0
1587045292106;-3;71;74;-34;-38;73;0;0;0;0;0
1587045292108;3;76;73;-40;-35;75;0;0;0;0;0
1587045292110;0;76;76;-38;-38;76;0;0;0;0;0
1587045292112;1;65;64;-33;-31;65;0;0;0;0;0
1587045292114;8;45;37;-27;-14;41;0;0;0;0;0
1587045292116;13;37;24;-25;-5;31;0;0;0;0;0
1587045292118;13;37;24;-25;-5;31;0;0;0;0;0
1587045292120;17;38;21;-28;-2;30;0;0;0;0;0
1587045292122;17;47;30;-32;-6;39;0;0;0;0;0
1587045292124;-20;49;69;-15;-44;59;0;0;0;0;0
1587045292126;-49;37;86;6;-67;62;0;0;0;0;0
1587045292128;-31;23;54;4;-42;39;0;0;0;0;0
1587045292130;-42;5;47;18;-44;26;0;0;0;0;0
1587045292132;-54;-3;51;28;-52;24;0;0;0;0;0
1587045292134;-36;1;37;17;-36;19;0;0;0;0;0
1587045292136;-32;4;36;14;-34;20;0;0;0;0;0
1587045292138;-29;7;36;11;-32;22;0;0;0;0;0
1587045292140;-35;16;51;9;-43;34;0;0;0;0;0
1587045292142;-40;20;60;10;-50;40;0;0;0;0;0
1587045292144;-52;6;58;23;-55;32;0;0;0;0;0
1587045292146;-68;-10;58;39;-63;24;0;0;0;0;0
1587045292148;-53;-16;37;34;-45;11;0;0;0;0;0
1587045292150;-37;-17;20;27;-28;2;0;0;0;0;0
1587045292152;-35;-3;32;19;-33;15;0;0;0;0;0
1587045292154;-20;16;36;2;-28;26;0;0;0;0;0
1587045292156;-20;12;32;4;-26;22;0;0;0;0;0
1587045292158;-45;-1;44;23;-44;22;0;0;0;0;0
1587045292160;-69;-8;61;38;-65;27;0;0;0;0;0
1587045292162;-83;-19;64;51;-73;23;0;0;0;0;0
1587045292164;-62;-12;50;37;-56;19;0;0;0;0;0
1587045292166;-31;-4;27;17;-29;12;0;0;0;0;0
1587045292168;-25;-11;14;18;-19;2;0;0;0;0;0
1587045292170;-45;-16;29;30;-37;7;0;0;0;0;0
1587045292172;-56;-15;41;35;-48;13;0;0;0;0;0
1587045292174;-48;-8;40;28;-44;16;0;0;0;0;0
1587045292176;-46;-10;36;28;-41;13;0;0;0;0;0
1587045292178;-68;-22;46;45;-57;12;0;0;0;0;0
1587045292180;-86;-25;61;55;-73;18;0;0;0;0;0
1587045292182;-81;-23;58;52;-69;18;0;0;0;0;0
1587045292184;-70;-12;58;41;-64;23;0;0;0;0;0
1587045292186;-50;-13;37;31;-43;12;0;0;0;0;0
1587045292188;-37;-29;8;33;-22;-10;0;0;0;0;0
1587045292190;-69;-27;42;48;-55;8;0;0;0;0;0
1587045292192;-78;-19;59;48;-68;20;0;0;0;0;0
1587045292194;-45;-22;23;33;-34;1;0;0;0;0;0
1587045292196;-49;-16;33;32;-41;9;0;0;0;0;0
1587045292198;-51;-15;36;33;-43;11;0;0;0;0;0
1587045292200;-54;-21;33;37;-43;6;0;0;0;0;0
1587045292202;-72;-21;51;46;-61;15;0;0;0;0;0
1587045292204;-81;-19;62;50;-71;22;0;0;0;0;0
1587045292206;-91;-13;78;52;-84;33;0;0;0;0;0
1587045292208;-95;-5;90;50;-92;43;0;0;0;0;0
1587045292210;-80;-6;74;43;-77;34;0;0;0;0;0
1587045292212;-55;-7;48;31;-51;21;0;0;0;0;0
1587045292214;-49;-8;41;28;-45;17;0;0;0;0;0
1587045292216;-46;-7;39;26;-42;16;0;0;0;0;0
1587045292218;-38;-2;36;20;-37;17;0;0;0;0;0
1587045292220;-54;-1;53;27;-53;26;0;0;0;0;0
1587045292222;-90;-6;84;48;-87;39;0;0;0;0;0
1587045292224;-107;-8;99;57;-103;46;0;0;0;0;0
1587045292226;-95;-1;94;48;-94;47;0;0;0;0;0
1587045292228;-71;-2;69;36;-70;34;0;0;0;0;0
1587045292230;-72;-7;65;39;-68;29;0;0;0;0;0
1587045292232;-85;2;87;41;-86;45;0;0;0;0;0
1587045292234;-80;8;88;36;-84;48;0;0;0;0;0
1587045292236;-83;-8;75;45;-79;34;0;0;0;0;0
1587045292238;-92;-36;56;64;-74;10;0;0;0;0;0
1587045292240;-77;-45;32;61;-54;-6;0;0;0;0;0
1587045292242;-55;-35;20;45;-37;-7;0;0;0;0;0
1587045292244;-58;-33;25;45;-41;-4;0;0;0;0;0
1587045292246;-70;-23;47;46;-58;12;0;0;0;0;0
1587045292248;-83;-7;76;45;-79;35;0;0;0;0;0
1587045292250;-109;-3;106;56;-107;52;0;0;0;0;0
1587045292252;-109;-8;101;58;-105;47;0;0;0;0;0
1587045292254;-97;-20;77;58;-87;29;0;0;0;0;0
1587045292256;-114;-24;90;69;-102;33;0;0;0;0;0
1587045292258;-129;-24;105;76;-117;41;0;0;0;0;0
1587045292260;-119;-16;103;67;-111;44;0;0;0;0;0
1587045292262;-112;-9;103;60;-107;47;0;0;0;0;0
1587045292264;-108;-11;97;59;-102;43;0;0;0;0;0
1587045292266;-102;-20;82;61;-92;31;0;0;0;0;0
1587045292268;-90;-21;69;55;-79;24;0;0;0;0;0
1587045292270;-77;-15;62;46;-69;24;0;0;0;0;0
1587045292272;-77;-6;71;41;-74;33;0;0;0;0;0
1587045292274;-81;-4;77;42;-79;37;0;0;0;0;0
1587045292276;-111;-13;98;62;-104;43;0;0;0;0;0
1587045292278;-129;-18;111;73;-120;47;0;0;0;0;0
1587045292280;-116;-28;88;72;-102;30;0;0;0;0;0
1587045292282;-113;-38;75;75;-94;19;0;0;0;0;0
1587045292284;-103;-24;79;63;-91;28;0;0;0;0;0
1587045292286;-74;-14;60;44;-67;23;0;0;0;0;0
1587045292288;-74;-26;48;50;-61;11;0;0;0;0;0
1587045292290;-98;-25;73;61;-85;24;0;0;0;0;0
1587045292292;-91;-17;74;54;-82;29;0;0;0;0;0
1587045292294;-68;-14;54;41;-61;20;0;0;0;0;0
1587045292296;-87;-12;75;49;-81;32;0;0;0;0;0
1587045292298;-132;-27;105;79;-118;39;0;0;0;0;0
1587045292300;-147;-46;101;96;-124;28;0;0;0;0;0
1587045292302;-133;-28;105;80;-119;39;0;0;0;0;0
1587045292304;-134;4;138;65;-136;71;0;0;0;0;0
1587045292306;-136;2;138;67;-137;70;0;0;0;0;0
1587045292308;-114;-4;110;59;-112;53;0;0;0;0;0
1587045292310;-88;-17;71;52;-79;27;0;0;0;0;0
1587045292312;-72;-29;43;50;-57;7;0;0;0;0;0
1587045292314;-78;-36;42;57;-60;3;0;0;0;0;0
1587045292316;-99;-49;50;74;-74;1;0;0;0;0;0
1587045292318;-111;-47;64;79;-87;9;0;0;0;0;0
1587045292320;-119;-29;90;74;-104;31;0;0;0;0;0
1587045292322;-121;-15;106;68;-113;46;0;0;0;0;0
1587045292324;-118;-23;95;70;-106;36;0;0;0;0;0
1587045292326;-119;-26;93;72;-106;34;0;0;0;0;0
1587045292328;-125;-24;101;74;-113;39;0;0;0;0;0
1587045292330;-117;-27;90;72;-103;32;0;0;0;0;0
1587045292332;-96;-27;69;61;-82;21;0;0;0;0;0
1587045292334;-105;-11;94;58;-99;42;0;0;0;0;0
1587045292336;-121;11;132;55;-126;72;0;0;0;0;0
1587045292338;-119;7;126;56;-122;67;0;0;0;0;0
1587045292340;-111;-36;75;73;-93;20;0;0;0;0;0
1587045292342;-104;-64;40;84;-72;-12;0;0;0;0;0
1587045292344;-99;-42;57;70;-78;8;0;0;0;0;0
1587045292346;-91;-15;76;53;-83;31;0;0;0;0;0
1587045292348;-93;-15;78;54;-85;32;0;0;0;0;0
1587045292350;-102;-23;79;62;-90;28;0;0;0;0;0
1587045292352;-103;-22;81;62;-92;30;0;0;0;0;0
1587045292354;-101;-13;88;57;-94;38;0;0;0;0;0
1587045292356;-110;-19;91;64;-100;36;0;0;0;0;0
1587045292358;-133;-29;104;81;-118;38;0;0;0;0;0
1587045292360;-127;-28;99;77;-113;36;0;0;0;0;0
1587045292362;-102;-25;77;63;-89;26;0;0;0;0;0
1587045292364;-90;-27;63;58;-76;18;0;0;0;0;0
1587045292366;-68;-35;33;51;-50;-1;0;0;0;0;0
1587045292368;-55;-44;11;49;-33;-16;0;0;0;0;0
1587045292370;-80;-46;34;63;-57;-6;0;0;0;0;0
1587045292372;-100;-35;65;67;-82;15;0;0;0;0;0
1587045292374;-103;-28;75;65;-89;24;0;0;0;0;0
1587045292376;-115;-31;84;73;-99;27;0;0;0;0;0
1587045292378;-100;-29;71;64;-85;21;0;0;0;0;0
1587045292380;-74;-22;52;48;-63;15;0;0;0;0;0
1587045292382;-72;-27;45;49;-58;9;0;0;0;0;0
1587045292384;-60;-36;24;48;-42;-6;0;0;0;0;0
1587045292386;-51;-38;13;44;-32;-12;0;0;0;0;0
1587045292388;-97;-54;43;75;-70;-5;0;0;0;0;0
1587045292390;-152;-60;92;106;-122;16;0;0;0;0;0
1587045292392;-162;-52;110;107;-136;29;0;0;0;0;0
1587045292394;-145;-49;96;97;-120;24;0;0;0;0;0
1587045292396;-125;-40;85;82;-105;23;0;0;0;0;0
1587045292398;-129;-20;109;74;-119;45;0;0;0;0;0
1587045292400;-135;-4;131;69;-133;64;0;0;0;0;0
1587045292402;-125;-8;117;66;-121;55;0;0;0;0;0
1587045292404;-111;-12;99;61;-105;44;0;0;0;0;0
1587045292406;-99;-21;78;60;-88;29;0;0;0;0;0
1587045292408;-100;-49;51;74;-75;1;0;0;0;0;0
1587045292410;-101;-43;58;72;-79;8;0;0;0;0;0
1587045292412;-113;-30;83;71;-98;27;0;0;0;0;0
1587045292414;-130;-41;89;85;-109;24;0;0;0;0;0
1587045292416;-111;-35;76;73;-93;21;0;0;0;0;0
1587045292418;-93;-27;66;60;-79;20;0;0;0;0;0
1587045292420;-99;-25;74;62;-86;25;0;0;0;0;0
1587045292422;-106;-26;80;66;-93;27;0;0;0;0;0
1587045292424;-102;-34;68;68;-85;17;0;0;0;0;0
1587045292426;-88;-41;47;64;-67;3;0;0;0;0;0
1587045292428;-80;-45;35;62;-57;-5;0;0;0;0;0
1587045292430;-74;-49;25;61;-49;-12;0;0;0;0;0
1587045292432;-77;-50;27;63;-52;-11;0;0;0;0;0
1587045292434;-87;-50;37;68;-62;-6;0;0;0;0;0
1587045292436;-90;-45;45;67;-67;0;0;0;0;0;0
1587045292438;-96;-32;64;64;-80;16;0;0;0;0;0
1587045292440;-95;-27;68;61;-81;21;0;0;0;0;0
1587045292442;-65;-35;30;50;-47;-2;0;0;0;0;0
1587045292444;-50;-39;11;44;-30;-14;0;0;0;0;0
1587045292446;-61;-42;19;51;-40;-11;0;0;0;0;0
1587045292448;-69;-46;23;57;-46;-11;0;0;0;0;0
1587045292450;-88;-36;52;62;-70;8;0;0;0;0;0
1587045292452;-104;-12;92;58;-98;40;0;0;0;0;0
1587045292454;-105;-2;103;53;-104;51;0;0;0;0;0
1587045292456;-92;-19;73;55;-82;27;0;0;0;0;0
1587045292458;-77;-38;39;57;-58;1;0;0;0;0;0
1587045292460;-78;-55;23;66;-50;-16;0;0;0;0;0
1587045292462;-65;-55;10;60;-37;-22;0;0;0;0;0
1587045292464;-43;-42;1;42;-22;-20;0;0;0;0;0
1587045292466;-35;-30;5;32;-20;-12;0;0;0;0;0
1587045292468;-45;-26;19;35;-32;-3;0;0;0;0;0
1587045292470;-64;-35;29;49;-46;-3;0;0;0;0;0
1587045292472;-82;-41;41;61;-61;0;0;0;0;0;0
1587045292474;-88;-49;39;68;-63;-5;0;0;0;0;0
1587045292476;-91;-46;45;68;-68;0;0;0;0;0;0
1587045292478;-98;-29;69;63;-83;20;0;0;0;0;0
1587045292480;-92;-28;64;60;-78;18;0;0;0;0;0
1587045292482;-86;-37;49;61;-67;6;0;0;0;0;0
1587045292484;-76;-27;49;51;-62;11;0;0;0;0;0
1587045292486;-63;-26;37;44;-50;6;0;0;0;0;0
1587045292488;-63;-44;19;53;-41;-12;0;0;0;0;0
1587045292490;-64;-45;19;54;-41;-13;0;0;0;0;0
1587045292492;-61;-28;33;44;-47;3;0;0;0;0;0
1587045292494;-54;-25;29;39;-41;2;0;0;0;0;0
1587045292496;-57;-43;14;50;-35;-14;0;0;0;0;0
1587045292498;-50;-28;22;39;-36;-3;0;0;0;0;0
1587045292500;-31;0;31;15;-31;16;0;0;0;0;0
1587045292502;-26;-2;24;14;-25;11;0;0;0;0;0
1587045292504;-25;-12;13;18;-19;1;0;0;0;0;0
1587045292506;-16;-22;-6;19;-5;-14;0;0;0;0;0
1587045292508;-30;-35;-5;32;-12;-20;0;0;0;0;0
1587045292510;-54;-43;11;48;-32;-16;0;0;0;0;0
1587045292512;-56;-39;17;47;-36;-11;0;0;0;0;0
1587045292514;-50;-20;30;35;-40;5;0;0;0;0;0
1587045292516;-37;8;45;14;-41;27;0;0;0;0;0
1587045292518;-29;9;38;10;-33;24;0;0;0;0;0
1587045292520;-15;-2;13;8;-14;6;0;0;0;0;0
1587045292522;-1;-3;-2;2;1;-2;0;0;0;0;0
1587045292524;-25;-4;21;14;-23;9;0;0;0;0;0
1587045292526;-53;-5;48;29;-50;22;0;0;0;0;0
1587045292528;-50;-3;47;26;-48;22;0;0;0;0;0
1587045292530;-54;-3;51;28;-52;24;0;0;0;0;0
1587045292532;-65;0;65;32;-65;33;0;0;0;0;0
1587045292534;-41;2;43;19;-42;23;0;0;0;0;0
1587045292536;-6;8;14;-1;-10;11;0;0;0;0;0
1587045292538;-5;21;26;-8;-15;24;0;0;0;0;0
1587045292540;-27;20;47;3;-37;34;0;0;0;0;0
1587045292542;-48;15;63;16;-55;39;0;0;0;0;0
1587045292544;-63;17;80;23;-71;49;0;0;0;0;0
1587045292546;-63;11;74;26;-68;43;0;0;0;0;0
1587045292548;-43;11;54;16;-48;33;0;0;0;0;0
1587045292550;-24;19;43;2;-33;31;0;0;0;0;0
1587045292552;-16;19;35;-2;-25;27;0;0;0;0;0
1587045292554;-17;4;21;6;-19;13;0;0;0;0;0
1587045292556;-15;-3;12;9;-13;5;0;0;0;0;0
1587045292558;0;10;10;-5;-5;10;0;0;0;0;0
1587045292560;-7;11;18;-2;-12;15;0;0;0;0;0
1587045292562;-33;1;34;16;-33;18;0;0;0;0;0
1587045292564;-38;-8;30;23;-34;11;0;0;0;0;0
1587045292566;-8;-10;-2;9;-3;-6;0;0;0;0;0
1587045292568;-11;-13;-2;12;-4;-7;0;0;0;0;0
1587045292570;-60;-27;33;43;-46;3;0;0;0;0;0
1587045292572;-66;-24;42;45;-54;9;0;0;0;0;0
1587045292574;-48;-16;32;32;-40;8;0;0;0;0;0
1587045292576;-48;-33;15;40;-31;-9;0;0;0;0;0
1587045292578;-41;-50;-9;45;-16;-29;0;0;0;0;0
1587045292580;-32;-31;1;31;-16;-15;0;0;0;0;0
1587045292582;-25;-15;10;20;-17;-2;0;0;0;0;0
1587045292584;-24;-30;-6;27;-9;-18;0;0;0;0;0
1587045292586;-40;-53;-13;46;-13;-33;0;0;0;0;0
1587045292588;-45;-68;-23;56;-11;-45;0;0;0;0;0
1587045292590;-28;-63;-35;45;4;-49;0;0;0;0;0
1587045292592;-19;-54;-35;36;8;-44;0;0;0;0;0
1587045292594;-11;-53;-42;32;16;-47;0;0;0;0;0
1587045292596;8;-57;-65;24;37;-61;0;0;0;0;0
1587045292598;2;-56;-58;27;30;-57;0;0;0;0;0
1587045292600;-20;-52;-32;36;6;-42;0;0;0;0;0
1587045292602;-36;-52;-16;44;-10;-34;0;0;0;0;0
1587045292604;-57;-57;0;57;-28;-28;0;0;0;0;0
1587045292606;-66;-63;3;64;-34;-30;0;0;0;0;0
1587045292608;-62;-57;5;59;-33;-26;0;0;0;0;0
1587045292610;-51;-50;1;50;-26;-24;0;0;0;0;0
1587045292612;-27;-46;-19;36;-4;-32;0;0;0;0;0
1587045292614;-17;-44;-27;30;5;-35;0;0;0;0;0
1587045292616;-11;-48;-37;29;13;-42;0;0;0;0;0
1587045292618;7;-56;-63;24;35;-59;0;0;0;0;0
1587045292620;2;-54;-56;26;29;-55;0;0;0;0;0
1587045292622;-14;-60;-46;37;16;-53;0;0;0;0;0
1587045292624;-13;-71;-58;42;23;-64;0;0;0;0;0
1587045292626;-1;-66;-65;33;32;-65;0;0;0;0;0
1587045292628;26;-57;-83;15;55;-70;0;0;0;0;0
1587045292630;24;-59;-83;17;54;-71;0;0;0;0;0
1587045292632;-7;-74;-67;40;30;-70;0;0;0;0;0
1587045292634;-7;-67;-60;37;27;-63;0;0;0;0;0
1587045292636;-9;-47;-38;28;15;-42;0;0;0;0;0
1587045292638;-25;-31;-6;28;-9;-18;0;0;0;0;0
1587045292640;-22;-19;3;20;-12;-8;0;0;0;0;0
1587045292642;-20;-14;6;17;-13;-4;0;0;0;0;0
1587045292644;-58;-23;35;40;-46;6;0;0;0;0;0
1587045292646;-108;-46;62;77;-85;8;0;0;0;0;0
1587045292648;-97;-65;32;81;-64;-16;0;0;0;0;0
1587045292650;-35;-92;-57;63;11;-74;0;0;0;0;0
1587045292652;5;-111;-116;53;61;-113;0;0;0;0;0
1587045292654;-4;-115;-111;59;54;-113;0;0;0;0;0
1587045292656;-41;-126;-85;83;22;-105;0;0;0;0;0
1587045292658;-92;-119;-27;105;-32;-73;0;0;0;0;0
1587045292660;-91;-97;-6;94;-42;-51;0;0;0;0;0
1587045292662;-78;-74;4;76;-41;-35;0;0;0;0;0
1587045292664;-63;-44;19;53;-41;-12;0;0;0;0;0
1587045292666;-14;-8;6;11;-10;-1;0;0;0;0;0
1587045292668;27;40;13;-34;7;27;0;0;0;0;0
1587045292670;79;111;32;-95;24;72;0;0;0;0;0
1587045292672;135;184;49;-160;43;117;0;0;0;0;0
1587045292674;190;255;65;-223;63;160;0;0;0;0;0
1587045292676;230;335;105;-283;63;220;0;0;0;0;0
1587045292678;245;424;179;-335;33;302;0;0;0;0;0
1587045292680;209;530;321;-370;-56;426;0;0;0;0;0
1587045292682;134;649;515;-392;-190;582;0;0;0;0;0
1587045292684;90;755;665;-423;-287;710;0;0;0;0;0
1587045292686;60;772;712;-416;-326;742;0;0;0;0;0
1587045292688;13;713;700;-363;-343;707;0;0;0;0;0
1587045292690;-36;641;677;-303;-356;659;0;0;0;0;0
1587045292692;-83;545;628;-231;-355;587;0;0;0;0;0
1587045292694;-117;438;555;-161;-336;497;0;0;0;0;0
1587045292696;-142;328;470;-93;-306;399;0;0;0;0;0
1587045292698;-165;232;397;-34;-281;315;0;0;0;0;0
1587045292700;-187;153;340;17;-263;247;0;0;0;0;0
1587045292702;-173;92;265;40;-219;179;0;0;0;0;0
1587045292704;-140;57;197;41;-168;127;0;0;0;0;0
1587045292706;-92;32;124;30;-108;78;0;0;0;0;0
1587045292708;-50;14;64;18;-57;39;0;0;0;0;0
1587045292710;-84;-12;72;48;-78;30;0;0;0;0;0
1587045292712;-102;-38;64;70;-83;13;0;0;0;0;0
1587045292714;-67;-45;22;56;-44;-11;0;0;0;0;0
1587045292716;-71;-49;22;60;-46;-13;0;0;0;0;0
1587045292718;-104;-58;46;81;-75;-6;0;0;0;0;0
1587045292720;-120;-59;61;89;-90;1;0;0;0;0;0
1587045292722;-103;-44;59;73;-81;8;0;0;0;0;0
1587045292724;-92;-27;65;59;-78;19;0;0;0;0;0
1587045292726;-95;-19;76;57;-85;29;0;0;0;0;0
1587045292728;-83;-15;68;49;-75;27;0;0;0;0;0
1587045292730;-74;-23;51;48;-62;14;0;0;0;0;0
1587045292732;-80;-48;32;64;-56;-8;0;0;0;0;0
1587045292734;-96;-57;39;76;-67;-9;0;0;0;0;0
1587045292736;-88;-14;74;51;-81;30;0;0;0;0;0
1587045292738;-76;30;106;23;-91;68;0;0;0;0;0
1587045292740;-93;33;126;30;-109;80;0;0;0;0;0
1587045292742;-118;20;138;49;-128;79;0;0;0;0;0
1587045292744;-141;-18;123;79;-132;53;0;0;0;0;0
1587045292746;-145;-62;83;103;-114;11;0;0;0;0;0
1587045292748;-130;-72;58;101;-94;-7;0;0;0;0;0
1587045292750;-129;-61;68;95;-98;4;0;0;0;0;0
1587045292752;-123;-53;70;88;-96;9;0;0;0;0;0
1587045292754;-125;-61;64;93;-94;2;0;0;0;0;0
1587045292756;-143;-81;62;112;-102;-9;0;0;0;0;0
1587045292758;-129;-87;42;108;-85;-22;0;0;0;0;0
1587045292760;-113;-73;40;93;-76;-16;0;0;0;0;0
1587045292762;-132;-65;67;98;-99;1;0;0;0;0;0
1587045292764;-140;-63;77;101;-108;7;0;0;0;0;0
1587045292766;-146;-50;96;98;-121;23;0;0;0;0;0
1587045292768;-136;-37;99;86;-117;31;0;0;0;0;0
1587045292770;-126;-43;83;84;-104;20;0;0;0;0;0
1587045292772;-136;-57;79;96;-107;11;0;0;0;0;0
1587045292774;-129;-61;68;95;-98;4;0;0;0;0;0
1587045292776;-135;-63;72;99;-103;5;0;0;0;0;0
1587045292778;-153;-61;92;107;-122;16;0;0;0;0;0
1587045292780;-146;-52;94;99;-120;21;0;0;0;0;0
1587045292782;-120;-41;79;80;-99;19;0;0;0;0;0
1587045292784;-95;-16;79;55;-87;32;0;0;0;0;0
1587045292786;-116;3;119;56;-117;61;0;0;0;0;0
1587045292788;-160;-10;150;85;-155;70;0;0;0;0;0
1587045292790;-150;-14;136;82;-143;61;0;0;0;0;0
1587045292792;-105;-6;99;55;-102;47;0;0;0;0;0
1587045292794;-69;-11;58;40;-63;24;0;0;0;0;0
1587045292796;-69;-26;43;47;-56;9;0;0;0;0;0
1587045292798;-105;-56;49;80;-77;-3;0;0;0;0;0
1587045292800;-140;-76;64;108;-102;-6;0;0;0;0;0
1587045292802;-166;-77;89;121;-127;6;0;0;0;0;0
1587045292804;-168;-74;94;121;-131;10;0;0;0;0;0
1587045292806;-129;-67;62;98;-95;-2;0;0;0;0;0
1587045292808;-111;-53;58;82;-84;3;0;0;0;0;0
1587045292810;-120;-47;73;83;-96;13;0;0;0;0;0
1587045292812;-127;-47;80;87;-103;17;0;0;0;0;0
1587045292814;-130;-47;83;88;-106;18;0;0;0;0;0
1587045292816;-126;-48;78;87;-102;15;0;0;0;0;0
1587045292818;-100;-38;62;69;-81;12;0;0;0;0;0
1587045292820;-93;-27;66;60;-79;20;0;0;0;0;0
1587045292822;-103;-29;74;66;-88;23;0;0;0;0;0
1587045292824;-127;-37;90;82;-108;27;0;0;0;0;0
1587045292826;-143;-43;100;93;-121;29;0;0;0;0;0
1587045292828;-145;-35;110;90;-127;38;0;0;0;0;0
1587045292830;-167;-33;134;100;-150;51;0;0;0;0;0
1587045292832;-138;-43;95;90;-116;26;0;0;0;0;0
1587045292834;-104;-46;58;75;-81;6;0;0;0;0;0
1587045292836;-86;-41;45;63;-65;2;0;0;0;0;0
1587045292838;-74;-39;35;56;-54;-2;0;0;0;0;0
1587045292840;-79;-36;43;57;-61;4;0;0;0;0;0
1587045292842;-100;-23;77;61;-88;27;0;0;0;0;0
1587045292844;-102;-3;99;52;-100;48;0;0;0;0;0
1587045292846;-80;13;93;33;-86;53;0;0;0;0;0
1587045292848;-103;10;113;46;-108;62;0;0;0;0;0
1587045292850;-134;-7;127;70;-130;60;0;0;0;0;0
1587045292852;-141;-20;121;80;-131;51;0;0;0;0;0
1587045292854;-121;-20;101;70;-111;41;0;0;0;0;0
1587045292856;-102;-20;82;61;-92;31;0;0;0;0;0
1587045292858;-93;-18;75;55;-84;29;0;0;0;0;0
1587045292860;-89;-22;67;55;-78;23;0;0;0;0;0
1587045292862;-85;-27;58;56;-71;16;0;0;0;0;0
1587045292864;-66;-17;49;41;-57;16;0;0;0;0;0
1587045292866;-72;-8;64;40;-68;28;0;0;0;0;0
1587045292868;-73;-11;62;42;-67;26;0;0;0;0;0
1587045292870;-58;-15;43;36;-50;14;0;0;0;0;0
1587045292872;-64;-15;49;39;-56;17;0;0;0;0;0
1587045292874;-76;-10;66;43;-71;28;0;0;0;0;0
1587045292876;-80;-5;75;42;-77;35;0;0;0;0;0
1587045292878;-89;-2;87;45;-88;43;0;0;0;0;0
1587045292880;-113;-3;110;58;-111;54;0;0;0;0;0
1587045292882;-102;-12;90;57;-96;39;0;0;0;0;0
1587045292884;-49;-11;38;30;-43;14;0;0;0;0;0
1587045292886;-41;-3;38;22;-39;18;0;0;0;0;0
1587045292888;-30;-4;26;17;-28;11;0;0;0;0;0
1587045292890;-20;-1;19;10;-19;9;0;0;0;0;0
1587045292892;-42;17;59;12;-50;38;0;0;0;0;0
1587045292894;-45;30;75;7;-60;53;0;0;0;0;0
1587045292896;-44;38;82;3;-63;60;0;0;0;0;0
1587045292898;-28;66;94;-19;-61;80;0;0;0;0;0
1587045292900;-2;64;66;-31;-34;65;0;0;0;0;0
1587045292902;23;46;23;-35;0;35;0;0;0;0;0
1587045292904;35;42;7;-39;14;25;0;0;0;0;0
1587045292906;37;29;-8;-33;23;11;0;0;0;0;0
1587045292908;10;11;1;-11;5;6;0;0;0;0;0
1587045292910;10;8;-2;-9;6;3;0;0;0;0;0
1587045292912;25;24;-1;-25;13;12;0;0;0;0;0
1587045292914;-11;33;44;-11;-27;39;0;0;0;0;0
1587045292916;-10;39;49;-15;-29;44;0;0;0;0;0
1587045292918;25;35;10;-30;8;23;0;0;0;0;0
1587045292920;42;31;-11;-37;27;10;0;0;0;0;0
1587045292922;38;43;5;-41;17;24;0;0;0;0;0
1587045292924;36;51;15;-44;11;33;0;0;0;0;0
1587045292926;36;50;14;-43;11;32;0;0;0;0;0
1587045292928;26;49;23;-38;2;36;0;0;0;0;0
1587045292930;27;53;26;-40;1;40;0;0;0;0;0
1587045292932;44;53;9;-49;18;31;0;0;0;0;0
1587045292934;84;55;-29;-70;57;13;0;0;0;0;0
1587045292936;132;61;-71;-97;102;-5;0;0;0;0;0
1587045292938;142;61;-81;-102;112;-10;0;0;0;0;0
1587045292940;117;60;-57;-89;87;2;0;0;0;0;0
1587045292942;86;75;-11;-81;49;32;0;0;0;0;0
1587045292944;54;103;49;-79;3;76;0;0;0;0;0
1587045292946;47;123;76;-85;-14;100;0;0;0;0;0
1587045292948;69;136;67;-103;1;102;0;0;0;0;0
1587045292950;95;128;33;-112;31;81;0;0;0;0;0
1587045292952;118;112;-6;-115;62;53;0;0;0;0;0
1587045292954;144;93;-51;-119;98;21;0;0;0;0;0
1587045292956;132;76;-56;-104;94;10;0;0;0;0;0
1587045292958;94;80;-14;-87;54;33;0;0;0;0;0
1587045292960;80;90;10;-85;35;50;0;0;0;0;0
1587045292962;100;93;-7;-97;54;43;0;0;0;0;0
1587045292964;139;95;-44;-117;92;26;0;0;0;0;0
1587045292966;149;96;-53;-123;101;22;0;0;0;0;0
1587045292968;140;87;-53;-114;97;17;0;0;0;0;0
1587045292970;137;87;-50;-112;94;19;0;0;0;0;0
1587045292972;134;86;-48;-110;91;19;0;0;0;0;0
1587045292974;128;64;-64;-96;96;0;0;0;0;0;0
1587045292976;107;59;-48;-83;78;6;0;0;0;0;0
1587045292978;94;72;-22;-83;58;25;0;0;0;0;0
1587045292980;112;77;-35;-95;74;21;0;0;0;0;0
1587045292982;131;86;-45;-109;88;21;0;0;0;0;0
1587045292984;121;93;-28;-107;75;33;0;0;0;0;0
1587045292986;126;89;-37;-108;82;26;0;0;0;0;0
1587045292988;135;76;-59;-106;97;9;0;0;0;0;0
1587045292990;121;50;-71;-86;96;-10;0;0;0;0;0
1587045292992;126;25;-101;-76;114;-38;0;0;0;0;0
1587045292994;126;19;-107;-73;117;-44;0;0;0;0;0
1587045292996;125;26;-99;-76;112;-36;0;0;0;0;0
1587045292998;137;33;-104;-85;121;-35;0;0;0;0;0
1587045293000;123;28;-95;-76;109;-33;0;0;0;0;0
1587045293002;101;16;-85;-59;93;-34;0;0;0;0;0
1587045293004;121;7;-114;-64;118;-53;0;0;0;0;0
1587045293006;130;-8;-138;-61;134;-73;0;0;0;0;0
1587045293008;96;-15;-111;-41;104;-63;0;0;0;0;0
1587045293010;96;-6;-102;-45;99;-54;0;0;0;0;0
1587045293012;105;-2;-107;-52;106;-54;0;0;0;0;0
1587045293014;97;-5;-102;-46;100;-53;0;0;0;0;0
1587045293016;105;6;-99;-56;102;-46;0;0;0;0;0
1587045293018;109;28;-81;-69;95;-26;0;0;0;0;0
1587045293020;130;16;-114;-73;122;-49;0;0;0;0;0
1587045293022;135;-18;-153;-59;144;-85;0;0;0;0;0
1587045293024;85;-25;-110;-30;98;-67;0;0;0;0;0
1587045293026;60;-18;-78;-21;69;-48;0;0;0;0;0
1587045293028;75;-24;-99;-26;87;-61;0;0;0;0;0
1587045293030;91;-35;-126;-28;109;-80;0;0;0;0;0
1587045293032;116;-33;-149;-42;133;-91;0;0;0;0;0
1587045293034;134;-28;-162;-53;148;-95;0;0;0;0;0
1587045293036;123;-26;-149;-49;136;-87;0;0;0;0;0
1587045293038;90;-23;-113;-34;102;-68;0;0;0;0;0
1587045293040;60;-30;-90;-15;75;-60;0;0;0;0;0
1587045293042;48;-38;-86;-5;67;-62;0;0;0;0;0
1587045293044;72;-38;-110;-17;91;-74;0;0;0;0;0
1587045293046;117;-40;-157;-39;137;-98;0;0;0;0;0
1587045293048;117;-42;-159;-38;138;-100;0;0;0;0;0
1587045293050;112;-40;-152;-36;132;-96;0;0;0;0;0
1587045293052;116;-15;-131;-51;124;-73;0;0;0;0;0
1587045293054;99;5;-94;-52;97;-44;0;0;0;0;0
1587045293056;65;-14;-79;-26;72;-46;0;0;0;0;0
1587045293058;12;-34;-46;11;29;-40;0;0;0;0;0
1587045293060;37;-36;-73;-1;55;-54;0;0;0;0;0
1587045293062;113;-34;-147;-40;130;-90;0;0;0;0;0
1587045293064;116;-21;-137;-48;127;-79;0;0;0;0;0
1587045293066;101;-15;-116;-43;109;-65;0;0;0;0;0
1587045293068;120;-16;-136;-52;128;-76;0;0;0;0;0
1587045293070;124;-17;-141;-54;133;-79;0;0;0;0;0
1587045293072;125;-23;-148;-51;137;-85;0;0;0;0;0
1587045293074;103;-20;-123;-42;113;-71;0;0;0;0;0
1587045293076;39;-25;-64;-7;52;-44;0;0;0;0;0
1587045293078;53;-43;-96;-5;75;-69;0;0;0;0;0
1587045293080;95;-34;-129;-31;112;-81;0;0;0;0;0
1587045293082;73;-9;-82;-32;78;-45;0;0;0;0;0
1587045293084;49;-13;-62;-18;56;-37;0;0;0;0;0
1587045293086;57;-32;-89;-13;73;-60;0;0;0;0;0
1587045293088;75;-32;-107;-22;91;-69;0;0;0;0;0
1587045293090;79;-20;-99;-30;89;-59;0;0;0;0;0
1587045293092;87;-18;-105;-35;96;-61;0;0;0;0;0
1587045293094;111;-18;-129;-47;120;-73;0;0;0;0;0
1587045293096;112;-13;-125;-50;119;-69;0;0;0;0;0
1587045293098;93;-12;-105;-41;99;-58;0;0;0;0;0
1587045293100;95;-15;-110;-40;103;-62;0;0;0;0;0
1587045293102;114;-21;-135;-47;125;-78;0;0;0;0;0
1587045293104;109;-29;-138;-40;124;-83;0;0;0;0;0
1587045293106;99;-36;-135;-32;117;-85;0;0;0;0;0
1587045293108;107;-33;-140;-37;124;-86;0;0;0;0;0
1587045293110;89;-21;-110;-34;100;-65;0;0;0;0;0
1587045293112;71;-16;-87;-28;79;-51;0;0;0;0;0
1587045293114;91;-17;-108;-37;100;-62;0;0;0;0;0
1587045293116;103;-15;-118;-44;111;-66;0;0;0;0;0
1587045293118;91;-24;-115;-34;103;-69;0;0;0;0;0
1587045293120;71;-32;-103;-20;87;-67;0;0;0;0;0
1587045293122;58;-24;-82;-17;70;-53;0;0;0;0;0
1587045293124;74;-23;-97;-26;86;-60;0;0;0;0;0
1587045293126;106;-25;-131;-41;119;-78;0;0;0;0;0
1587045293128;98;-21;-119;-39;109;-70;0;0;0;0;0
1587045293130;85;-23;-108;-31;97;-65;0;0;0;0;0
1587045293132;96;-26;-122;-35;109;-74;0;0;0;0;0
1587045293134;95;-24;-119;-36;107;-71;0;0;0;0;0
1587045293136;103;-20;-123;-42;113;-71;0;0;0;0;0
1587045293138;111;-32;-143;-40;127;-87;0;0;0;0;0
1587045293140;89;-49;-138;-20;114;-93;0;0;0;0;0
1587045293142;69;-38;-107;-16;88;-72;0;0;0;0;0
1587045293144;77;-12;-89;-33;83;-50;0;0;0;0;0
1587045293146;78;1;-77;-40;78;-38;0;0;0;0;0
1587045293148;66;-17;-83;-25;75;-50;0;0;0;0;0
1587045293150;55;-34;-89;-11;72;-61;0;0;0;0;0
1587045293152;58;-25;-83;-17;71;-54;0;0;0;0;0
1587045293154;68;-24;-92;-22;80;-58;0;0;0;0;0
1587045293156;79;-31;-110;-24;95;-70;0;0;0;0;0
1587045293158;99;-22;-121;-39;110;-71;0;0;0;0;0
1587045293160;124;-3;-127;-61;126;-65;0;0;0;0;0
1587045293162;113;-3;-116;-55;115;-59;0;0;0;0;0
1587045293164;74;-30;-104;-22;89;-67;0;0;0;0;0
1587045293166;44;-43;-87;-1;66;-65;0;0;0;0;0
1587045293168;56;-20;-76;-18;66;-48;0;0;0;0;0
1587045293170;65;-7;-72;-29;69;-39;0;0;0;0;0
1587045293172;56;-8;-64;-24;60;-36;0;0;0;0;0
1587045293174;70;-15;-85;-28;78;-50;0;0;0;0;0
1587045293176;100;-26;-126;-37;113;-76;0;0;0;0;0
1587045293178;109;-18;-127;-46;118;-72;0;0;0;0;0
1587045293180;83;-18;-101;-33;92;-59;0;0;0;0;0
1587045293182;61;-27;-88;-17;75;-57;0;0;0;0;0
1587045293184;54;-26;-80;-14;67;-53;0;0;0;0;0
1587045293186;52;-37;-89;-8;71;-63;0;0;0;0;0
1587045293188;54;-37;-91;-9;73;-64;0;0;0;0;0
1587045293190;50;-24;-74;-13;62;-49;0;0;0;0;0
1587045293192;32;-31;-63;-1;48;-47;0;0;0;0;0
1587045293194;19;-32;-51;6;35;-41;0;0;0;0;0
1587045293196;31;-29;-60;-1;46;-44;0;0;0;0;0
1587045293198;89;-37;-126;-26;108;-81;0;0;0;0;0
1587045293200;149;-25;-174;-62;162;-99;0;0;0;0;0
1587045293202;160;-12;-172;-74;166;-92;0;0;0;0;0
1587045293204;149;-29;-178;-60;164;-103;0;0;0;0;0
1587045293206;132;-33;-165;-50;149;-99;0;0;0;0;0
1587045293208;115;-25;-140;-45;128;-82;0;0;0;0;0
1587045293210;104;-19;-123;-43;114;-71;0;0;0;0;0
1587045293212;82;-22;-104;-30;93;-63;0;0;0;0;0
1587045293214;68;-38;-106;-15;87;-72;0;0;0;0;0
1587045293216;63;-49;-112;-7;88;-80;0;0;0;0;0
1587045293218;64;-52;-116;-6;90;-84;0;0;0;0;0
1587045293220;64;-49;-113;-8;89;-81;0;0;0;0;0
1587045293222;54;-38;-92;-8;73;-65;0;0;0;0;0
1587045293224;52;-17;-69;-18;61;-43;0;0;0;0;0
1587045293226;58;-12;-70;-23;64;-41;0;0;0;0;0
1587045293228;83;-27;-110;-28;97;-68;0;0;0;0;0
1587045293230;130;-30;-160;-50;145;-95;0;0;0;0;0
1587045293232;133;-20;-153;-57;143;-86;0;0;0;0;0
1587045293234;85;-16;-101;-35;93;-58;0;0;0;0;0
1587045293236;43;-26;-69;-9;56;-47;0;0;0;0;0
1587045293238;59;-41;-100;-9;80;-70;0;0;0;0;0
1587045293240;89;-41;-130;-24;110;-85;0;0;0;0;0
1587045293242;73;-27;-100;-23;87;-63;0;0;0;0;0
1587045293244;50;-40;-90;-5;70;-65;0;0;0;0;0
1587045293246;58;-54;-112;-2;85;-83;0;0;0;0;0
1587045293248;68;-55;-123;-7;96;-89;0;0;0;0;0
1587045293250;51;-50;-101;-1;76;-75;0;0;0;0;0
1587045293252;51;-31;-82;-10;67;-56;0;0;0;0;0
1587045293254;65;-29;-94;-18;80;-61;0;0;0;0;0
1587045293256;79;-34;-113;-23;96;-73;0;0;0;0;0
1587045293258;93;-32;-125;-31;109;-78;0;0;0;0;0
1587045293260;112;-31;-143;-41;128;-87;0;0;0;0;0
1587045293262;128;-26;-154;-51;141;-90;0;0;0;0;0
1587045293264;122;-29;-151;-47;137;-90;0;0;0;0;0
1587045293266;86;-47;-133;-20;110;-90;0;0;0;0;0
1587045293268;47;-48;-95;0;71;-71;0;0;0;0;0
1587045293270;64;-35;-99;-15;82;-67;0;0;0;0;0
1587045293272;92;-32;-124;-30;108;-78;0;0;0;0;0
1587045293274;82;-47;-129;-18;106;-88;0;0;0;0;0
1587045293276;60;-51;-111;-5;86;-81;0;0;0;0;0
1587045293278;59;-44;-103;-8;81;-73;0;0;0;0;0
1587045293280;81;-45;-126;-18;104;-85;0;0;0;0;0
1587045293282;86;-50;-136;-18;111;-93;0;0;0;0;0
1587045293284;75;-58;-133;-9;104;-95;0;0;0;0;0
1587045293286;76;-62;-138;-7;107;-100;0;0;0;0;0
1587045293288;80;-58;-138;-11;109;-98;0;0;0;0;0
1587045293290;75;-52;-127;-12;101;-89;0;0;0;0;0
1587045293292;77;-46;-123;-16;100;-84;0;0;0;0;0
1587045293294;69;-50;-119;-10;94;-84;0;0;0;0;0
1587045293296;49;-62;-111;6;80;-86;0;0;0;0;0
1587045293298;65;-58;-123;-4;94;-90;0;0;0;0;0
1587045293300;106;-42;-148;-32;127;-95;0;0;0;0;0
1587045293302;122;-33;-155;-45;139;-94;0;0;0;0;0
1587045293304;113;-18;-131;-48;122;-74;0;0;0;0;0
1587045293306;118;-10;-128;-54;123;-69;0;0;0;0;0
1587045293308;129;-29;-158;-50;144;-93;0;0;0;0;0
1587045293310;134;-45;-179;-45;157;-112;0;0;0;0;0
1587045293312;132;-51;-183;-41;158;-117;0;0;0;0;0
1587045293314;121;-43;-164;-39;143;-103;0;0;0;0;0
1587045293316;96;-28;-124;-34;110;-76;0;0;0;0;0
1587045293318;81;-33;-114;-24;98;-73;0;0;0;0;0
1587045293320;87;-38;-125;-25;106;-81;0;0;0;0;0
1587045293322;100;-34;-134;-33;117;-84;0;0;0;0;0
1587045293324;122;-34;-156;-44;139;-95;0;0;0;0;0
1587045293326;134;-40;-174;-47;154;-107;0;0;0;0;0
1587045293328;134;-46;-180;-44;157;-113;0;0;0;0;0
1587045293330;135;-34;-169;-51;152;-101;0;0;0;0;0
1587045293332;133;-25;-158;-54;146;-91;0;0;0;0;0
1587045293334;112;-31;-143;-41;128;-87;0;0;0;0;0
1587045293336;107;-38;-145;-35;126;-91;0;0;0;0;0
1587045293338;121;-39;-160;-41;141;-99;0;0;0;0;0
1587045293340;93;-42;-135;-26;114;-88;0;0;0;0;0
1587045293342;66;-31;-97;-18;82;-64;0;0;0;0;0
1587045293344;84;-9;-93;-38;89;-51;0;0;0;0;0
1587045293346;102;2;-100;-52;101;-49;0;0;0;0;0
1587045293348;106;2;-104;-54;105;-51;0;0;0;0;0
1587045293350;122;2;-120;-62;121;-59;0;0;0;0;0
1587045293352;136;15;-121;-76;129;-53;0;0;0;0;0
1587045293354;135;15;-120;-75;128;-52;0;0;0;0;0
1587045293356;131;4;-127;-68;129;-61;0;0;0;0;0
1587045293358;142;-2;-144;-70;143;-73;0;0;0;0;0
1587045293360;146;-11;-157;-68;152;-84;0;0;0;0;0
1587045293362;135;0;-135;-68;135;-67;0;0;0;0;0
1587045293364;107;12;-95;-60;101;-41;0;0;0;0;0
1587045293366;70;12;-58;-41;64;-23;0;0;0;0;0
1587045293368;79;23;-56;-51;68;-16;0;0;0;0;0
1587045293370;112;14;-98;-63;105;-42;0;0;0;0;0
1587045293372;133;-2;-135;-66;134;-68;0;0;0;0;0
1587045293374;143;5;-138;-74;141;-66;0;0;0;0;0
1587045293376;140;10;-130;-75;135;-60;0;0;0;0;0
1587045293378;157;-1;-158;-78;158;-79;0;0;0;0;0
1587045293380;169;-17;-186;-76;178;-101;0;0;0;0;0
1587045293382;140;-17;-157;-62;149;-87;0;0;0;0;0
1587045293384;109;-14;-123;-48;116;-68;0;0;0;0;0
1587045293386;138;-30;-168;-54;153;-99;0;0;0;0;0
1587045293388;187;-37;-224;-75;206;-130;0;0;0;0;0
1587045293390;185;-40;-225;-73;205;-132;0;0;0;0;0
1587045293392;153;-41;-194;-56;174;-117;0;0;0;0;0
1587045293394;120;-34;-154;-43;137;-94;0;0;0;0;0
1587045293396;95;-33;-128;-31;112;-80;0;0;0;0;0
1587045293398;63;-39;-102;-12;83;-70;0;0;0;0;0
1587045293400;32;-44;-76;6;54;-60;0;0;0;0;0
1587045293402;29;-45;-74;8;52;-59;0;0;0;0;0
1587045293404;45;-51;-96;3;71;-73;0;0;0;0;0
1587045293406;82;-63;-145;-10;114;-104;0;0;0;0;0
1587045293408;126;-63;-189;-32;158;-126;0;0;0;0;0
1587045293410;143;-47;-190;-48;167;-118;0;0;0;0;0
1587045293412;132;-40;-172;-46;152;-106;0;0;0;0;0
1587045293414;127;-57;-184;-35;156;-120;0;0;0;0;0
1587045293416;119;-68;-187;-26;153;-127;0;0;0;0;0
1587045293418;103;-63;-166;-20;135;-114;0;0;0;0;0
1587045293420;111;-54;-165;-29;138;-109;0;0;0;0;0
1587045293422;125;-58;-183;-34;154;-120;0;0;0;0;0
1587045293424;104;-73;-177;-16;141;-125;0;0;0;0;0
1587045293426;58;-75;-133;8;96;-104;0;0;0;0;0
1587045293428;45;-73;-118;14;82;-95;0;0;0;0;0
1587045293430;52;-84;-136;16;94;-110;0;0;0;0;0
1587045293432;82;-85;-167;1;125;-126;0;0;0;0;0
1587045293434;126;-68;-194;-29;160;-131;0;0;0;0;0
1587045293436;131;-58;-189;-37;160;-123;0;0;0;0;0
1587045293438;74;-53;-127;-11;101;-90;0;0;0;0;0
1587045293440;15;-43;-58;14;37;-50;0;0;0;0;0
1587045293442;12;-34;-46;11;29;-40;0;0;0;0;0
1587045293444;24;-31;-55;3;40;-43;0;0;0;0;0
1587045293446;26;-42;-68;8;47;-55;0;0;0;0;0
1587045293448;17;-58;-75;20;46;-66;0;0;0;0;0
1587045293450;14;-70;-84;28;49;-77;0;0;0;0;0
1587045293452;23;-75;-98;26;61;-86;0;0;0;0;0
1587045293454;19;-80;-99;30;59;-89;0;0;0;0;0
1587045293456;42;-83;-125;20;84;-104;0;0;0;0;0
1587045293458;74;-69;-143;-3;109;-106;0;0;0;0;0
1587045293460;76;-61;-137;-8;107;-99;0;0;0;0;0
1587045293462;80;-55;-135;-13;108;-95;0;0;0;0;0
1587045293464;75;-60;-135;-8;105;-97;0;0;0;0;0
1587045293466;68;-72;-140;2;104;-106;0;0;0;0;0
1587045293468;65;-87;-152;11;109;-119;0;0;0;0;0
1587045293470;44;-102;-146;29;95;-124;0;0;0;0;0
1587045293472;26;-108;-134;41;80;-121;0;0;0;0;0
1587045293474;22;-115;-137;46;80;-126;0;0;0;0;0
1587045293476;53;-112;-165;29;109;-138;0;0;0;0;0
1587045293478;98;-102;-200;2;149;-151;0;0;0;0;0
1587045293480;93;-97;-190;2;142;-143;0;0;0;0;0
1587045293482;83;-86;-169;1;126;-127;0;0;0;0;0
1587045293484;92;-66;-158;-13;125;-112;0;0;0;0;0
1587045293486;67;-52;-119;-8;93;-85;0;0;0;0;0
1587045293488;27;-32;-59;2;43;-45;0;0;0;0;0
1587045293490;79;14;-65;-47;72;-25;0;0;0;0;0
1587045293492;181;78;-103;-130;142;-12;0;0;0;0;0
1587045293494;251;161;-90;-206;171;36;0;0;0;0;0
1587045293496;329;247;-82;-288;206;83;0;0;0;0;0
1587045293498;375;322;-53;-349;214;135;0;0;0;0;0
1587045293500;379;402;23;-391;178;213;0;0;0;0;0
1587045293502;366;495;129;-431;119;312;0;0;0;0;0
1587045293504;316;575;259;-446;29;417;0;0;0;0;0
1587045293506;276;645;369;-461;-46;507;0;0;0;0;0
1587045293508;249;696;447;-473;-99;572;0;0;0;0;0
1587045293510;198;704;506;-451;-154;605;0;0;0;0;0
1587045293512;138;672;534;-405;-198;603;0;0;0;0;0
1587045293514;90;593;503;-342;-206;548;0;0;0;0;0
1587045293516;50;483;433;-267;-191;458;0;0;0;0;0
1587045293518;-7;359;366;-176;-186;363;0;0;0;0;0
1587045293520;-26;244;270;-109;-148;257;0;0;0;0;0
1587045293522;5;163;158;-84;-76;161;0;0;0;0;0
1587045293524;16;113;97;-65;-40;105;0;0;0;0;0
1587045293526;19;79;60;-49;-20;70;0;0;0;0;0
1587045293528;56;31;-25;-44;41;3;0;0;0;0;0
1587045293530;76;-10;-86;-33;81;-48;0;0;0;0;0
1587045293532;37;-32;-69;-3;53;-50;0;0;0;0;0
1587045293534;5;-55;-60;25;33;-57;0;0;0;0;0
1587045293536;9;-73;-82;32;46;-77;0;0;0;0;0
1587045293538;30;-88;-118;29;74;-103;0;0;0;0;0
1587045293540;44;-91;-135;23;90;-113;0;0;0;0;0
1587045293542;26;-78;-104;26;65;-91;0;0;0;0;0
1587045293544;-3;-49;-46;26;22;-47;0;0;0;0;0
1587045293546;4;-18;-22;7;13;-20;0;0;0;0;0
1587045293548;37;-19;-56;-9;47;-37;0;0;0;0;0
1587045293550;48;-33;-81;-8;65;-57;0;0;0;0;0
1587045293552;38;-31;-69;-4;54;-50;0;0;0;0;0
1587045293554;16;-30;-46;7;31;-38;0;0;0;0;0
1587045293556;20;-36;-56;8;38;-46;0;0;0;0;0
1587045293558;27;-43;-70;8;49;-56;0;0;0;0;0
1587045293560;-18;-42;-24;30;3;-33;0;0;0;0;0
1587045293562;-39;-44;-5;41;-17;-24;0;0;0;0;0
1587045293564;-6;-47;-41;26;18;-44;0;0;0;0;0
1587045293566;30;-48;-78;9;54;-63;0;0;0;0;0
1587045293568;42;-54;-96;6;69;-75;0;0;0;0;0
1587045293570;58;-62;-120;2;89;-91;0;0;0;0;0
1587045293572;93;-61;-154;-16;124;-107;0;0;0;0;0
1587045293574;115;-47;-162;-34;139;-104;0;0;0;0;0
1587045293576;90;-41;-131;-25;111;-86;0;0;0;0;0
1587045293578;51;-47;-98;-2;75;-72;0;0;0;0;0
1587045293580;54;-56;-110;1;82;-83;0;0;0;0;0
1587045293582;64;-63;-127;-1;96;-95;0;0;0;0;0
1587045293584;69;-65;-134;-2;102;-99;0;0;0;0;0
1587045293586;83;-58;-141;-13;112;-99;0;0;0;0;0
1587045293588;81;-43;-124;-19;103;-83;0;0;0;0;0
1587045293590;77;-29;-106;-24;92;-67;0;0;0;0;0
1587045293592;69;-25;-94;-22;82;-59;0;0;0;0;0
1587045293594;56;-30;-86;-13;71;-58;0;0;0;0;0
1587045293596;43;-28;-71;-8;57;-49;0;0;0;0;0
1587045293598;41;-25;-66;-8;54;-45;0;0;0;0;0
1587045293600;92;-48;-140;-22;116;-94;0;0;0;0;0
1587045293602;142;-65;-207;-39;175;-136;0;0;0;0;0
1587045293604;142;-64;-206;-39;174;-135;0;0;0;0;0
1587045293606;132;-57;-189;-38;161;-123;0;0;0;0;0
1587045293608;131;-48;-179;-42;155;-113;0;0;0;0;0
1587045293610;134;-45;-179;-45;157;-112;0;0;0;0;0
1587045293612;135;-42;-177;-47;156;-109;0;0;0;0;0
1587045293614;131;-31;-162;-50;147;-96;0;0;0;0;0
1587045293616;131;-26;-157;-53;144;-91;0;0;0;0;0
1587045293618;118;-40;-158;-39;138;-99;0;0;0;0;0
1587045293620;78;-54;-132;-12;105;-93;0;0;0;0;0
1587045293622;53;-55;-108;1;81;-81;0;0;0;0;0
1587045293624;39;-45;-84;3;62;-64;0;0;0;0;0
1587045293626;16;-40;-56;12;36;-48;0;0;0;0;0
1587045293628;12;-38;-50;13;31;-44;0;0;0;0;0
1587045293630;32;-28;-60;-2;46;-44;0;0;0;0;0
1587045293632;44;-28;-72;-8;58;-50;0;0;0;0;0
1587045293634;53;-24;-77;-15;65;-50;0;0;0;0;0
1587045293636;67;-10;-77;-29;72;-43;0;0;0;0;0
1587045293638;74;-20;-94;-27;84;-57;0;0;0;0;0
1587045293640;93;-11;-104;-41;99;-57;0;0;0;0;0
1587045293642;85;19;-66;-52;76;-23;0;0;0;0;0
1587045293644;63;12;-51;-38;57;-19;0;0;0;0;0
1587045293646;56;-11;-67;-23;62;-39;0;0;0;0;0
1587045293648;42;-24;-66;-9;54;-45;0;0;0;0;0
1587045293650;40;-27;-67;-7;54;-47;0;0;0;0;0
1587045293652;54;-37;-91;-9;73;-64;0;0;0;0;0
1587045293654;49;-40;-89;-5;69;-64;0;0;0;0;0
1587045293656;41;-18;-59;-12;50;-38;0;0;0;0;0
1587045293658;53;-7;-60;-23;57;-33;0;0;0;0;0
1587045293660;64;-20;-84;-22;74;-52;0;0;0;0;0
1587045293662;67;-30;-97;-19;82;-63;0;0;0;0;0
1587045293664;68;-36;-104;-16;86;-70;0;0;0;0;0
1587045293666;56;-34;-90;-11;73;-62;0;0;0;0;0
1587045293668;53;-23;-76;-15;65;-49;0;0;0;0;0
1587045293670;61;-21;-82;-20;72;-51;0;0;0;0;0
1587045293672;62;-25;-87;-19;75;-56;0;0;0;0;0
1587045293674;65;-10;-75;-28;70;-42;0;0;0;0;0
1587045293676;68;12;-56;-40;62;-22;0;0;0;0;0
1587045293678;63;6;-57;-35;60;-25;0;0;0;0;0
1587045293680;61;-10;-71;-26;66;-40;0;0;0;0;0
1587045293682;69;1;-68;-35;69;-33;0;0;0;0;0
1587045293684;72;3;-69;-38;71;-33;0;0;0;0;0
1587045293686;83;-8;-91;-38;87;-49;0;0;0;0;0
1587045293688;91;8;-83;-50;87;-37;0;0;0;0;0
1587045293690;67;17;-50;-42;59;-16;0;0;0;0;0
1587045293692;45;6;-39;-26;42;-16;0;0;0;0;0
1587045293694;60;0;-60;-30;60;-30;0;0;0;0;0
1587045293696;70;-10;-80;-30;75;-45;0;0;0;0;0
1587045293698;73;-18;-91;-28;82;-54;0;0;0;0;0
1587045293700;77;-9;-86;-34;82;-47;0;0;0;0;0
1587045293702;79;-8;-87;-36;83;-47;0;0;0;0;0
1587045293704;94;-15;-109;-40;102;-62;0;0;0;0;0
1587045293706;84;-12;-96;-36;90;-54;0;0;0;0;0
1587045293708;72;1;-71;-37;72;-35;0;0;0;0;0
1587045293710;59;-3;-62;-28;61;-32;0;0;0;0;0
1587045293712;58;-14;-72;-22;65;-43;0;0;0;0;0
1587045293714;70;-10;-80;-30;75;-45;0;0;0;0;0
1587045293716;72;-3;-75;-35;74;-39;0;0;0;0;0
1587045293718;91;11;-80;-51;86;-34;0;0;0;0;0
1587045293720;124;26;-98;-75;111;-36;0;0;0;0;0
1587045293722;119;42;-77;-81;98;-17;0;0;0;0;0
1587045293724;93;54;-39;-74;66;8;0;0;0;0;0
1587045293726;74;51;-23;-63;49;14;0;0;0;0;0
1587045293728;72;31;-41;-52;57;-5;0;0;0;0;0
1587045293730;84;15;-69;-50;77;-27;0;0;0;0;0
1587045293732;94;19;-75;-57;85;-28;0;0;0;0;0
1587045293734;94;37;-57;-66;76;-10;0;0;0;0;0
1587045293736;81;53;-28;-67;55;13;0;0;0;0;0
1587045293738;89;55;-34;-72;62;11;0;0;0;0;0
1587045293740;102;61;-41;-82;72;10;0;0;0;0;0
1587045293742;101;72;-29;-87;65;22;0;0;0;0;0
1587045293744;100;60;-40;-80;70;10;0;0;0;0;0
1587045293746;104;46;-58;-75;81;-6;0;0;0;0;0
1587045293748;115;55;-60;-85;88;-2;0;0;0;0;0
1587045293750;111;66;-45;-89;78;11;0;0;0;0;0
1587045293752;87;75;-12;-81;50;32;0;0;0;0;0
1587045293754;75;70;-5;-73;40;33;0;0;0;0;0
1587045293756;63;60;-3;-62;33;29;0;0;0;0;0
1587045293758;63;62;-1;-63;32;31;0;0;0;0;0
1587045293760;89;65;-24;-77;57;21;0;0;0;0;0
1587045293762;104;73;-31;-89;68;21;0;0;0;0;0
1587045293764;101;79;-22;-90;62;29;0;0;0;0;0
1587045293766;103;69;-34;-86;69;18;0;0;0;0;0
1587045293768;120;78;-42;-99;81;18;0;0;0;0;0
1587045293770;133;109;-24;-121;79;43;0;0;0;0;0
1587045293772;130;104;-26;-117;78;39;0;0;0;0;0
1587045293774;116;87;-29;-102;73;29;0;0;0;0;0
1587045293776;105;101;-4;-103;55;49;0;0;0;0;0
1587045293778;106;96;-10;-101;58;43;0;0;0;0;0
1587045293780;122;83;-39;-103;81;22;0;0;0;0;0
1587045293782;134;101;-33;-118;84;34;0;0;0;0;0
1587045293784;99;99;0;-99;50;50;0;0;0;0;0
1587045293786;65;86;21;-76;22;54;0;0;0;0;0
1587045293788;80;88;8;-84;36;48;0;0;0;0;0
1587045293790;83;78;-5;-81;44;37;0;0;0;0;0
1587045293792;79;71;-8;-75;44;32;0;0;0;0;0
1587045293794;84;68;-16;-76;50;26;0;0;0;0;0
1587045293796;75;60;-15;-68;45;23;0;0;0;0;0
1587045293798;59;55;-4;-57;32;26;0;0;0;0;0
1587045293800;74;50;-24;-62;49;13;0;0;0;0;0
1587045293802;106;48;-58;-77;82;-5;0;0;0;0;0
1587045293804;110;44;-66;-77;88;-11;0;0;0;0;0
1587045293806;89;51;-38;-70;64;7;0;0;0;0;0
1587045293808;45;54;9;-50;18;32;0;0;0;0;0
1587045293810;1;34;33;-18;-16;34;0;0;0;0;0
1587045293812;-15;34;49;-10;-32;42;0;0;0;0;0
1587045293814;-15;50;65;-18;-40;58;0;0;0;0;0
1587045293816;-11;46;57;-18;-34;52;0;0;0;0;0
1587045293818;-23;19;42;2;-32;31;0;0;0;0;0
1587045293820;-29;-4;25;16;-27;11;0;0;0;0;0
1587045293822;9;-8;-17;-1;13;-12;0;0;0;0;0
1587045293824;50;2;-48;-26;49;-23;0;0;0;0;0
1587045293826;67;17;-50;-42;59;-16;0;0;0;0;0
1587045293828;66;28;-38;-47;52;-5;0;0;0;0;0
1587045293830;33;16;-17;-25;25;0;0;0;0;0;0
1587045293832;-4;-8;-4;6;0;-6;0;0;0;0;0
1587045293834;-19;-15;4;17;-11;-5;0;0;0;0;0
1587045293836;-15;3;18;6;-16;11;0;0;0;0;0
1587045293838;1;14;13;-8;-6;14;0;0;0;0;0
1587045293840;5;2;-3;-4;4;0;0;0;0;0;0
1587045293842;-15;-2;13;8;-14;6;0;0;0;0;0
1587045293844;-24;-11;13;17;-18;1;0;0;0;0;0
1587045293846;-26;-35;-9;30;-8;-22;0;0;0;0;0
1587045293848;-43;-53;-10;48;-16;-31;0;0;0;0;0
1587045293850;-42;-49;-7;45;-17;-28;0;0;0;0;0
1587045293852;-19;-35;-16;27;-1;-25;0;0;0;0;0
1587045293854;-9;-14;-5;11;-2;-9;0;0;0;0;0
1587045293856;-8;34;42;-13;-25;38;0;0;0;0;0
1587045293858;-2;46;48;-22;-25;47;0;0;0;0;0
1587045293860;-1;1;2;0;-1;2;0;0;0;0;0
1587045293862;-10;-4;6;7;-8;1;0;0;0;0;0
1587045293864;-33;-5;28;19;-30;12;0;0;0;0;0
1587045293866;-50;-52;-2;51;-24;-27;0;0;0;0;0
1587045293868;-54;-76;-22;65;-16;-49;0;0;0;0;0
1587045293870;-46;-62;-16;54;-15;-39;0;0;0;0;0
1587045293872;-42;-47;-5;44;-18;-26;0;0;0;0;0
1587045293874;-26;-31;-5;28;-10;-18;0;0;0;0;0
1587045293876;-11;-19;-8;15;-1;-13;0;0;0;0;0
1587045293878;-43;-30;13;36;-28;-8;0;0;0;0;0
1587045293880;-57;-34;23;45;-40;-5;0;0;0;0;0
1587045293882;-48;-29;19;38;-33;-5;0;0;0;0;0
1587045293884;-50;-32;18;41;-34;-7;0;0;0;0;0
1587045293886;-48;-32;16;40;-32;-8;0;0;0;0;0
1587045293888;-63;-26;37;44;-50;6;0;0;0;0;0
1587045293890;-48;-31;17;39;-32;-7;0;0;0;0;0
1587045293892;-25;-40;-15;32;-5;-27;0;0;0;0;0
1587045293894;-42;-33;9;37;-25;-12;0;0;0;0;0
1587045293896;-38;-25;13;31;-25;-6;0;0;0;0;0
1587045293898;-39;-32;7;35;-23;-12;0;0;0;0;0
1587045293900;-40;-41;-1;40;-19;-21;0;0;0;0;0
1587045293902;-57;-41;16;49;-36;-12;0;0;0;0;0
1587045293904;-37;-39;-2;38;-17;-20;0;0;0;0;0
1587045293906;-23;-26;-3;24;-10;-14;0;0;0;0;0
1587045293908;-57;-11;46;34;-51;18;0;0;0;0;0
1587045293910;-62;-3;59;32;-60;28;0;0;0;0;0
1587045293912;-74;20;94;27;-84;57;0;0;0;0;0
1587045293914;-63;27;90;18;-76;59;0;0;0;0;0
1587045293916;-47;-15;32;31;-39;9;0;0;0;0;0
1587045293918;-41;-41;0;41;-20;-20;0;0;0;0;0
1587045293920;-52;-48;4;50;-28;-22;0;0;0;0;0
1587045293922;-84;-53;31;68;-57;-11;0;0;0;0;0
1587045293924;-113;-28;85;70;-99;29;0;0;0;0;0
1587045293926;-120;-8;112;64;-116;52;0;0;0;0;0
1587045293928;-89;-14;75;51;-82;31;0;0;0;0;0
1587045293930;-62;-29;33;45;-47;2;0;0;0;0;0
1587045293932;-73;-37;36;55;-54;0;0;0;0;0;0
1587045293934;-56;-37;19;46;-37;-9;0;0;0;0;0
1587045293936;-26;-28;-2;27;-12;-15;0;0;0;0;0
1587045293938;-20;-16;4;18;-12;-6;0;0;0;0;0
1587045293940;-29;-17;12;23;-20;-2;0;0;0;0;0
1587045293942;-44;-23;21;33;-32;-1;0;0;0;0;0
1587045293944;-47;-25;22;36;-34;-1;0;0;0;0;0
1587045293946;-50;-26;24;38;-37;-1;0;0;0;0;0
1587045293948;-44;-30;14;37;-29;-8;0;0;0;0;0
1587045293950;-28;-34;-6;31;-11;-20;0;0;0;0;0
1587045293952;-35;-28;7;31;-21;-10;0;0;0;0;0
1587045293954;-68;-23;45;45;-56;11;0;0;0;0;0
1587045293956;-101;-26;75;63;-88;25;0;0;0;0;0
1587045293958;-85;-30;55;57;-70;13;0;0;0;0;0
1587045293960;-62;-20;42;41;-52;11;0;0;0;0;0
1587045293962;-67;9;76;29;-71;43;0;0;0;0;0
1587045293964;-64;23;87;20;-75;55;0;0;0;0;0
1587045293966;-77;7;84;35;-80;46;0;0;0;0;0
1587045293968;-88;-16;72;52;-80;28;0;0;0;0;0
1587045293970;-90;-38;52;64;-71;7;0;0;0;0;0
1587045293972;-104;-40;64;72;-84;12;0;0;0;0;0
1587045293974;-102;-37;65;69;-83;14;0;0;0;0;0
1587045293976;-86;-36;50;61;-68;7;0;0;0;0;0
1587045293978;-63;-26;37;44;-50;6;0;0;0;0;0
1587045293980;-47;-33;14;40;-30;-9;0;0;0;0;0
1587045293982;-47;-38;9;42;-28;-14;0;0;0;0;0
1587045293984;-55;-27;28;41;-41;1;0;0;0;0;0
1587045293986;-78;-18;60;48;-69;21;0;0;0;0;0
1587045293988;-91;-21;70;56;-80;25;0;0;0;0;0
1587045293990;-70;-25;45;47;-57;10;0;0;0;0;0
1587045293992;-41;-25;16;33;-28;-4;0;0;0;0;0
1587045293994;-42;-26;16;34;-29;-5;0;0;0;0;0
1587045293996;-50;-27;23;38;-36;-2;0;0;0;0;0
1587045293998;-45;-28;17;36;-31;-5;0;0;0;0;0
1587045294000;-58;-39;19;48;-38;-10;0;0;0;0;0
1587045294002;-81;-43;38;62;-59;-2;0;0;0;0;0
1587045294004;-91;-36;55;63;-73;10;0;0;0;0;0
1587045294006;-94;-25;69;59;-81;22;0;0;0;0;0
1587045294008;-85;-22;63;53;-74;21;0;0;0;0;0
1587045294010;-81;-25;56;53;-68;16;0;0;0;0;0
1587045294012;-93;-32;61;62;-77;15;0;0;0;0;0
1587045294014;-92;-42;50;67;-71;4;0;0;0;0;0
1587045294016;-70;-45;25;57;-47;-10;0;0;0;0;0
1587045294018;-54;-29;25;41;-39;-2;0;0;0;0;0
1587045294020;-50;0;50;25;-50;25;0;0;0;0;0
1587045294022;-54;13;67;20;-60;40;0;0;0;0;0
1587045294024;-54;14;68;20;-61;41;0;0;0;0;0
1587045294026;-53;7;60;23;-56;34;0;0;0;0;0
1587045294028;-66;-17;49;41;-57;16;0;0;0;0;0
1587045294030;-84;-45;39;64;-61;-3;0;0;0;0;0
1587045294032;-82;-51;31;66;-56;-10;0;0;0;0;0
1587045294034;-69;-55;14;62;-41;-20;0;0;0;0;0
1587045294036;-84;-54;30;69;-57;-12;0;0;0;0;0
1587045294038;-81;-23;58;52;-69;18;0;0;0;0;0
1587045294040;-60;6;66;27;-63;36;0;0;0;0;0
1587045294042;-63;8;71;27;-67;40;0;0;0;0;0
1587045294044;-56;-2;54;29;-55;26;0;0;0;0;0
1587045294046;-53;-22;31;37;-42;5;0;0;0;0;0
1587045294048;-55;-47;8;51;-31;-19;0;0;0;0;0
1587045294050;-54;-48;6;51;-30;-21;0;0;0;0;0
1587045294052;-67;-34;33;50;-50;0;0;0;0;0;0
1587045294054;-77;-26;51;51;-64;13;0;0;0;0;0
1587045294056;-95;-38;57;66;-76;10;0;0;0;0;0
1587045294058;-100;-44;56;72;-78;6;0;0;0;0;0
1587045294060;-73;-25;48;49;-60;12;0;0;0;0;0
1587045294062;-60;-17;43;38;-51;13;0;0;0;0;0
1587045294064;-63;-24;39;43;-51;8;0;0;0;0;0
1587045294066;-68;-25;43;46;-55;9;0;0;0;0;0
1587045294068;-62;-21;41;41;-51;10;0;0;0;0;0
1587045294070;-66;-36;30;51;-48;-3;0;0;0;0;0
1587045294072;-88;-53;35;70;-61;-9;0;0;0;0;0
1587045294074;-99;-49;50;74;-74;1;0;0;0;0;0
1587045294076;-100;-30;70;65;-85;20;0;0;0;0;0
1587045294078;-96;-18;78;57;-87;30;0;0;0;0;0
1587045294080;-81;-35;46;58;-63;6;0;0;0;0;0
1587045294082;-64;-41;23;52;-43;-9;0;0;0;0;0
1587045294084;-48;-28;20;38;-34;-4;0;0;0;0;0
1587045294086;-35;-17;18;26;-26;1;0;0;0;0;0
1587045294088;-43;-23;20;33;-31;-1;0;0;0;0;0
1587045294090;-43;-31;12;37;-27;-9;0;0;0;0;0
1587045294092;-29;-30;-1;29;-14;-15;0;0;0;0;0
1587045294094;-38;-29;9;33;-23;-10;0;0;0;0;0
1587045294096;-53;-29;24;41;-38;-2;0;0;0;0;0
1587045294098;-51;-41;10;46;-30;-15;0;0;0;0;0
1587045294100;-30;-42;-12;36;-9;-27;0;0;0;0;0
1587045294102;-18;-23;-5;20;-6;-14;0;0;0;0;0
1587045294104;-31;-13;18;22;-24;3;0;0;0;0;0
1587045294106;-48;-23;25;35;-36;1;0;0;0;0;0
1587045294108;-64;-36;28;50;-46;-4;0;0;0;0;0
1587045294110;-65;-46;19;55;-42;-13;0;0;0;0;0
1587045294112;-58;-41;17;49;-37;-12;0;0;0;0;0
1587045294114;-62;-27;35;44;-48;4;0;0;0;0;0
1587045294116;-63;-18;45;40;-54;14;0;0;0;0;0
1587045294118;-63;-15;48;39;-55;17;0;0;0;0;0
1587045294120;-80;-22;58;51;-69;18;0;0;0;0;0
1587045294122;-103;-28;75;65;-89;24;0;0;0;0;0
1587045294124;-112;-44;68;78;-90;12;0;0;0;0;0
1587045294126;-98;-48;50;73;-74;1;0;0;0;0;0
1587045294128;-82;-41;41;61;-61;0;0;0;0;0;0
1587045294130;-77;-41;36;59;-56;-2;0;0;0;0;0
1587045294132;-69;-29;40;49;-54;6;0;0;0;0;0
1587045294134;-65;-2;63;33;-64;31;0;0;0;0;0
1587045294136;-60;15;75;22;-67;45;0;0;0;0;0
1587045294138;-58;3;61;27;-59;32;0;0;0;0;0
1587045294140;-54;-8;46;31;-50;19;0;0;0;0;0
1587045294142;-70;-27;43;48;-56;8;0;0;0;0;0
1587045294144;-94;-53;41;73;-67;-6;0;0;0;0;0
1587045294146;-76;-52;24;64;-50;-14;0;0;0;0;0
1587045294148;-46;-34;12;40;-29;-11;0;0;0;0;0
1587045294150;-44;-20;24;32;-34;2;0;0;0;0;0
1587045294152;-57;-16;41;36;-49;13;0;0;0;0;0
1587045294154;-67;-8;59;37;-63;26;0;0;0;0;0
1587045294156;-58;3;61;27;-59;32;0;0;0;0;0
1587045294158;-20;12;32;4;-26;22;0;0;0;0;0
1587045294160;12;12;0;-12;6;6;0;0;0;0;0
1587045294162;12;14;2;-13;5;8;0;0;0;0;0
1587045294164;-8;37;45;-15;-26;41;0;0;0;0;0
1587045294166;-6;42;48;-18;-27;45;0;0;0;0;0
1587045294168;-1;21;22;-10;-11;22;0;0;0;0;0
1587045294170;-17;30;47;-7;-32;39;0;0;0;0;0
1587045294172;-26;48;74;-11;-50;61;0;0;0;0;0
1587045294174;-21;25;46;-2;-33;36;0;0;0;0;0
1587045294176;-6;3;9;1;-7;6;0;0;0;0;0
1587045294178;-13;8;21;2;-17;15;0;0;0;0;0
1587045294180;-41;13;54;14;-47;34;0;0;0;0;0
1587045294182;-59;0;59;29;-59;30;0;0;0;0;0
1587045294184;-53;-9;44;31;-48;18;0;0;0;0;0
1587045294186;-30;0;30;15;-30;15;0;0;0;0;0
1587045294188;-17;7;24;5;-20;16;0;0;0;0;0
1587045294190;-18;-4;14;11;-16;5;0;0;0;0;0
1587045294192;-18;-34;-16;26;-1;-25;0;0;0;0;0
1587045294194;-17;-31;-14;24;-1;-22;0;0;0;0;0
1587045294196;-12;12;24;0;-18;18;0;0;0;0;0
1587045294198;4;33;29;-19;-12;31;0;0;0;0;0
1587045294200;26;12;-14;-19;20;-1;0;0;0;0;0
1587045294202;45;-17;-62;-14;54;-39;0;0;0;0;0
1587045294204;41;-33;-74;-4;58;-53;0;0;0;0;0
1587045294206;-1;-34;-33;17;16;-33;0;0;0;0;0
1587045294208;-38;-35;3;36;-20;-16;0;0;0;0;0
1587045294210;-43;-39;4;41;-23;-17;0;0;0;0;0
1587045294212;-26;-36;-10;31;-8;-23;0;0;0;0;0
1587045294214;-6;-36;-30;21;12;-33;0;0;0;0;0
1587045294216;8;-37;-45;14;27;-41;0;0;0;0;0
1587045294218;5;-42;-47;18;26;-44;0;0;0;0;0
1587045294220;-18;-60;-42;39;12;-51;0;0;0;0;0
1587045294222;-48;-63;-15;55;-16;-39;0;0;0;0;0
1587045294224;-58;-53;5;55;-31;-24;0;0;0;0;0
1587045294226;-31;-54;-23;42;-4;-38;0;0;0;0;0
1587045294228;-19;-52;-33;35;7;-42;0;0;0;0;0
1587045294230;-23;-40;-17;31;-3;-28;0;0;0;0;0
1587045294232;-18;-37;-19;27;1;-28;0;0;0;0;0
1587045294234;-11;-36;-25;23;7;-30;0;0;0;0;0
1587045294236;3;-21;-24;9;14;-22;0;0;0;0;0
1587045294238;-11;-23;-12;17;1;-17;0;0;0;0;0
1587045294240;-16;-52;-36;34;10;-44;0;0;0;0;0
1587045294242;4;-72;-76;34;40;-74;0;0;0;0;0
1587045294244;-3;-59;-56;31;27;-57;0;0;0;0;0
1587045294246;-6;-36;-30;21;12;-33;0;0;0;0;0
1587045294248;7;-35;-42;14;25;-38;0;0;0;0;0
1587045294250;4;-35;-39;15;22;-37;0;0;0;0;0
1587045294252;-2;-39;-37;20;18;-38;0;0;0;0;0
1587045294254;-7;-44;-37;25;15;-40;0;0;0;0;0
1587045294256;-6;-35;-29;20;12;-32;0;0;0;0;0
1587045294258;0;-47;-47;23;24;-47;0;0;0;0;0
1587045294260;-4;-72;-68;38;32;-70;0;0;0;0;0
1587045294262;3;-79;-82;38;43;-80;0;0;0;0;0
1587045294264;8;-75;-83;33;46;-79;0;0;0;0;0
1587045294266;4;-65;-69;30;37;-67;0;0;0;0;0
1587045294268;8;-57;-65;24;37;-61;0;0;0;0;0
1587045294270;18;-43;-61;12;40;-52;0;0;0;0;0
1587045294272;25;-46;-71;10;48;-58;0;0;0;0;0
1587045294274;20;-69;-89;24;55;-79;0;0;0;0;0
1587045294276;7;-77;-84;35;46;-80;0;0;0;0;0
1587045294278;-14;-76;-62;45;24;-69;0;0;0;0;0
1587045294280;-33;-86;-53;59;10;-69;0;0;0;0;0
1587045294282;-30;-105;-75;67;23;-90;0;0;0;0;0
1587045294284;-11;-105;-94;58;42;-99;0;0;0;0;0
1587045294286;5;-108;-113;51;59;-110;0;0;0;0;0
1587045294288;2;-117;-119;57;61;-118;0;0;0;0;0
1587045294290;-16;-80;-64;48;24;-72;0;0;0;0;0
1587045294292;-25;-38;-13;31;-6;-25;0;0;0;0;0
1587045294294;-19;-54;-35;36;8;-44;0;0;0;0;0
1587045294296;7;-69;-76;31;42;-72;0;0;0;0;0
1587045294298;46;-46;-92;0;69;-69;0;0;0;0;0
1587045294300;95;-17;-112;-39;104;-64;0;0;0;0;0
1587045294302;123;22;-101;-73;112;-39;0;0;0;0;0
1587045294304;150;97;-53;-124;102;22;0;0;0;0;0
1587045294306;191;193;2;-192;95;98;0;0;0;0;0
1587045294308;196;278;82;-237;57;180;0;0;0;0;0
1587045294310;212;342;130;-277;41;236;0;0;0;0;0
1587045294312;224;416;192;-320;16;304;0;0;0;0;0
1587045294314;210;503;293;-357;-41;398;0;0;0;0;0
1587045294316;178;579;401;-379;-111;490;0;0;0;0;0
1587045294318;136;644;508;-390;-186;576;0;0;0;0;0
1587045294320;101;666;565;-384;-232;616;0;0;0;0;0
1587045294322;57;647;590;-352;-266;619;0;0;0;0;0
1587045294324;0;605;605;-303;-302;605;0;0;0;0;0
1587045294326;-52;540;592;-244;-322;566;0;0;0;0;0
1587045294328;-63;450;513;-194;-288;482;0;0;0;0;0
1587045294330;-47;349;396;-151;-221;373;0;0;0;0;0
1587045294332;-48;254;302;-103;-175;278;0;0;0;0;0
1587045294334;-90;151;241;-31;-165;196;0;0;0;0;0
1587045294336;-113;68;181;22;-147;125;0;0;0;0;0
